
-19266
-15217
-12242
-10019
-8317
-7029
-6006
-5167
-4473
-4032
-3763
-3547
-3383
-3250
-3119
-2996
-2859
-2737
-2662
-2607
-2596
-2610
-2609
-2564
-2491
-2415
-2364
-2340
-2357
-2407
-2434
-2418
-2391
-2353
-2315
-2296
-2304
-2344
-2369
-2368
-2352
-2329
-2306
-2300
-2311
-2342
-2359
-2346
-2300
-2277
-2282
-2292
-2317
-2366
-2384
-2354
-2307
-2271
-2243
-2261
-2302
-2351
-2379
-2366
-2336
-2297
-2239
-2232
-2280
-2330
-2368
-2367
-2342
-2317
-2279
-2266
-2277
-2305
-2334
-2336
-2305
-2299
-2283
-2266
-2289
-2317
-2334
-2319
-2281
-2265
-2265
-2276
-2321
-2361
-2362
-2332
-2291
-2262
-2243
-2242
-2286
-2337
-2341
-2272
-2151
-2026
-1911
-1821
-1788
-1796
-1801
-1732
-1662
-1596
-1534
-1501
-1518
-1560
-1596
-1592
-1568
-1600
-1650
-1671
-1717
-1794
-1868
-1924
-1975
-2052
-2128
-2204
-2270
-2327
-2349
-2324
-2278
-2237
-2211
-2214
-2261
-2318
-2356
-2360
-2311
-2261
-2217
-2209
-2240
-2292
-2337
-2345
-2317
-2295
-2256
-2222
-2239
-2301
-2329
-2394
-2517
-2657
-2768
-2469
-1684
-766
216
1240
2201
2458
1872
1011
61
-927
-1843
-2366
-2423
-2354
-2272
-2234
-2284
-2319
-2347
-2339
-2287
-2232
-2203
-2200
-2227
-2289
-2336
-2331
-2295
-2264
-2234
-2226
-2242
-2292
-2318
-2317
-2291
-2269
-2258
-2233
-2251
-2284
-2309
-2274
-2232
-2186
-2144
-2126
-2132
-2131
-2094
-2027
-1951
-1862
-1789
-1769
-1789
-1797
-1787
-1747
-1670
-1596
-1537
-1512
-1526
-1542
-1560
-1534
-1491
-1437
-1383
-1351
-1366
-1396
-1418
-1419
-1394
-1366
-1354
-1364
-1381
-1436
-1483
-1474
-1473
-1472
-1499
-1554
-1614
-1674
-1724
-1755
-1749
-1761
-1794
-1839
-1927
-2041
-2116
-2153
-2154
-2159
-2172
-2189
-2221
-2279
-2326
-2314
-2305
-2269
-2213
-2202
-2233
-2272
-2289
-2291
-2290
-2276
-2246
-2246
-2253
-2285
-2299
-2282
-2261
-2241
-2218
-2233
-2273
-2302
-2317
-2302
-2250
-2215
-2207
-2211
-2247
-2304
-2346
-2331
-2292
-2232
-2182
-2185
-2217
-2273
-2314
-2310
-2284
-2257
-2231
-2214
-2223
-2261
-2269
-2285
-2287
-2266
-2255
-2256
-2261
-2266
-2292
-2278
-2242
-2221
-2222
-2243
-2262
-2300
-2307
-2283
-2248
-2209
-2188
-2207
-2232
-2291
-2332
-2317
-2272
-2207
-2185
-2177
-2212
-2269
-2308
-2305
-2286
-2257
-2206
-2186
-2211
-2260
-2293
-2289
-2254
-2244
-2231
-2225
-2236
-2262
-2274
-2262
-2239
-2227
-2215
-2224
-2259
-2288
-2293
-2279
-2243
-2212
-2206
-2199
-2241
-2297
-2316
-2321
-2271
-2236
-2196
-2184
-2206
-2259
-2300
-2317
-2297
-2262
-2216
-2200
-2218
-2244
-2277
-2285
-2251
-2241
-2205
-2129
-2074
-2021
-1953
-1861
-1751
-1697
-1654
-1624
-1601
-1598
-1589
-1564
-1507
-1464
-1461
-1476
-1524
-1606
-1686
-1714
-1706
-1696
-1733
-1809
-1904
-2041
-2167
-2244
-2251
-2233
-2218
-2188
-2196
-2246
-2281
-2298
-2282
-2240
-2220
-2229
-2222
-2241
-2269
-2280
-2251
-2229
-2199
-2217
-2262
-2282
-2301
-2284
-2236
-2192
-2187
-2254
-2433
-2666
-2831
-2524
-1702
-709
317
1320
2230
2409
1794
953
71
-833
-1710
-2228
-2366
-2368
-2343
-2309
-2279
-2245
-2224
-2212
-2234
-2277
-2281
-2263
-2247
-2221
-2214
-2230
-2256
-2286
-2296
-2272
-2232
-2202
-2189
-2192
-2233
-2290
-2319
-2312
-2260
-2224
-2197
-2168
-2162
-2184
-2215
-2184
-2127
-2056
-1971
-1917
-1894
-1888
-1864
-1833
-1777
-1726
-1684
-1646
-1632
-1642
-1625
-1587
-1534
-1481
-1436
-1427
-1433
-1452
-1459
-1426
-1357
-1300
-1285
-1302
-1342
-1395
-1434
-1434
-1405
-1382
-1364
-1376
-1427
-1516
-1581
-1617
-1636
-1627
-1619
-1647
-1694
-1774
-1856
-1914
-1951
-1968
-1999
-2039
-2101
-2187
-2233
-2234
-2219
-2207
-2213
-2209
-2237
-2300
-2309
-2277
-2239
-2198
-2169
-2177
-2233
-2288
-2322
-2299
-2263
-2207
-2165
-2166
-2197
-2261
-2305
-2304
-2267
-2231
-2206
-2197
-2207
-2242
-2272
-2284
-2269
-2242
-2232
-2217
-2233
-2249
-2266
-2273
-2229
-2207
-2211
-2219
-2247
-2288
-2307
-2286
-2245
-2191
-2166
-2188
-2227
-2279
-2321
-2324
-2274
-2215
-2186
-2184
-2205
-2248
-2288
-2302
-2273
-2249
-2202
-2179
-2201
-2234
-2274
-2278
-2249
-2236
-2217
-2209
-2216
-2250
-2286
-2275
-2241
-2219
-2199
-2209
-2240
-2276
-2302
-2287
-2257
-2209
-2175
-2196
-2219
-2271
-2322
-2317
-2250
-2200
-2173
-2169
-2179
-2248
-2302
-2301
-2274
-2247
-2221
-2209
-2211
-2234
-2274
-2264
-2238
-2236
-2228
-2222
-2232
-2266
-2271
-2262
-2241
-2222
-2214
-2221
-2252
-2296
-2316
-2285
-2232
-2202
-2191
-2185
-2224
-2281
-2288
-2219
-2108
-1967
-1851
-1769
-1734
-1736
-1730
-1692
-1618
-1546
-1483
-1462
-1472
-1493
-1521
-1551
-1548
-1563
-1581
-1627
-1680
-1749
-1813
-1876
-1916
-1996
-2055
-2136
-2209
-2290
-2301
-2285
-2235
-2206
-2182
-2189
-2228
-2267
-2294
-2292
-2257
-2216
-2172
-2154
-2196
-2255
-2296
-2297
-2265
-2240
-2214
-2189
-2197
-2230
-2272
-2347
-2470
-2604
-2721
-2441
-1669
-756
230
1260
2238
2514
1943
1083
118
-866
-1797
-2341
-2393
-2327
-2233
-2186
-2213
-2277
-2320
-2311
-2267
-2220
-2196
-2161
-2181
-2234
-2283
-2299
-2279
-2254
-2225
-2193
-2201
-2228
-2246
-2254
-2257
-2245
-2219
-2216
-2232
-2249
-2263
-2239
-2176
-2140
-2102
-2085
-2092
-2095
-2067
-1997
-1914
-1836
-1769
-1733
-1749
-1766
-1764
-1727
-1656
-1582
-1514
-1479
-1477
-1502
-1518
-1492
-1455
-1427
-1365
-1323
-1320
-1348
-1377
-1393
-1357
-1333
-1321
-1346
-1372
-1409
-1443
-1446
-1434
-1441
-1459
-1517
-1589
-1672
-1709
-1714
-1724
-1731
-1752
-1816
-1889
-1995
-2084
-2121
-2131
-2141
-2159
-2168
-2192
-2246
-2287
-2284
-2266
-2240
-2204
-2175
-2202
-2247
-2271
-2262
-2253
-2233
-2219
-2215
-2235
-2249
-2258
-2251
-2215
-2192
-2193
-2209
-2256
-2296
-2305
-2273
-2225
-2191
-2178
-2174
-2202
-2275
-2319
-2317
-2265
-2204
-2177
-2167
-2182
-2237
-2281
-2301
-2264
-2236
-2213
-2198
-2196
-2219
-2256
-2256
-2244
-2242
-2231
-2211
-2222
-2259
-2284
-2259
-2216
-2197
-2183
-2203
-2236
-2287
-2304
-2281
-2244
-2192
-2167
-2187
-2226
-2281
-2323
-2302
-2269
-2217
-2177
-2155
-2180
-2246
-2291
-2296
-2262
-2230
-2197
-2174
-2197
-2251
-2275
-2266
-2257
-2234
-2216
-2214
-2236
-2269
-2269
-2247
-2204
-2187
-2176
-2190
-2229
-2271
-2298
-2271
-2232
-2189
-2159
-2176
-2226
-2263
-2300
-2310
-2265
-2212
-2171
-2163
-2184
-2240
-2292
-2294
-2257
-2236
-2207
-2201
-2202
-2228
-2260
-2271
-2247
-2227
-2186
-2120
-2058
-1998
-1934
-1852
-1740
-1666
-1627
-1594
-1576
-1566
-1571
-1540
-1497
-1462
-1433
-1447
-1507
-1584
-1672
-1697
-1707
-1686
-1704
-1782
-1896
-2007
-2144
-2230
-2259
-2236
-2200
-2201
-2208
-2219
-2242
-2261
-2246
-2222
-2222
-2213
-2227
-2254
-2264
-2252
-2217
-2197
-2189
-2199
-2237
-2284
-2291
-2273
-2227
-2189
-2174
-2236
-2409
-2643
-2821
-2535
-1704
-698
333
1329
2231
2449
1851
1011
119
-799
-1687
-2219
-2352
-2359
-2326
-2279
-2247
-2235
-2225
-2211
-2222
-2253
-2262
-2260
-2214
-2204
-2186
-2206
-2239
-2275
-2292
-2267
-2222
-2187
-2163
-2164
-2208
-2269
-2308
-2288
-2262
-2219
-2180
-2147
-2144
-2167
-2172
-2149
-2087
-2024
-1976
-1921
-1876
-1847
-1839
-1824
-1757
-1696
-1658
-1624
-1611
-1623
-1610
-1571
-1509
-1452
-1421
-1411
-1428
-1447
-1460
-1416
-1341
-1292
-1284
-1277
-1327
-1368
-1411
-1403
-1382
-1359
-1343
-1356
-1406
-1487
-1560
-1587
-1617
-1628
-1639
-1652
-1697
-1770
-1838
-1892
-1916
-1950
-1987
-2034
-2079
-2162
-2219
-2231
-2216
-2204
-2200
-2212
-2241
-2279
-2299
-2277
-2227
-2178
-2176
-2189
-2228
-2261
-2292
-2296
-2254
-2204
-2166
-2166
-2179
-2227
-2286
-2294
-2259
-2248
-2212
-2190
-2195
-2232
-2262
-2267
-2254
-2230
-2214
-2216
-2244
-2276
-2271
-2256
-2224
-2199
-2199
-2205
-2244
-2274
-2299
-2280
-2245
-2202
-2179
-2168
-2201
-2275
-2312
-2304
-2273
-2223
-2179
-2159
-2170
-2230
-2282
-2293
-2272
-2237
-2209
-2181
-2183
-2214
-2262
-2267
-2236
-2225
-2231
-2212
-2224
-2261
-2277
-2254
-2217
-2193
-2192
-2199
-2234
-2286
-2304
-2279
-2226
-2180
-2157
-2160
-2211
-2266
-2296
-2293
-2255
-2213
-2188
-2162
-2167
-2216
-2271
-2286
-2270
-2244
-2199
-2181
-2210
-2239
-2265
-2260
-2244
-2226
-2218
-2207
-2228
-2239
-2273
-2242
-2223
-2198
-2191
-2201
-2235
-2277
-2304
-2295
-2234
-2191
-2165
-2149
-2201
-2263
-2274
-2202
-2085
-1974
-1857
-1751
-1708
-1717
-1714
-1673
-1614
-1546
-1489
-1469
-1477
-1502
-1516
-1517
-1530
-1534
-1565
-1622
-1689
-1751
-1841
-1888
-1917
-1972
-2037
-2124
-2216
-2275
-2305
-2291
-2243
-2194
-2167
-2174
-2212
-2262
-2306
-2302
-2266
-2220
-2192
-2170
-2183
-2222
-2278
-2289
-2267
-2244
-2208
-2196
-2198
-2221
-2274
-2333
-2460
-2609
-2721
-2439
-1695
-778
189
1231
2231
2534
1966
1088
137
-836
-1767
-2311
-2403
-2319
-2228
-2197
-2219
-2262
-2304
-2300
-2253
-2211
-2182
-2152
-2181
-2225
-2266
-2291
-2282
-2236
-2202
-2191
-2197
-2236
-2252
-2249
-2238
-2221
-2208
-2201
-2215
-2264
-2281
-2232
-2167
-2120
-2086
-2052
-2067
-2099
-2077
-2002
-1906
-1826
-1757
-1709
-1709
-1742
-1757
-1721
-1663
-1584
-1509
-1465
-1463
-1491
-1499
-1481
-1451
-1420
-1375
-1322
-1321
-1334
-1361
-1372
-1353
-1327
-1319
-1320
-1370
-1406
-1447
-1459
-1433
-1431
-1451
-1503
-1592
-1659
-1724
-1731
-1718
-1723
-1758
-1816
-1890
-1994
-2071
-2111
-2136
-2130
-2134
-2167
-2196
-2239
-2287
-2284
-2277
-2244
-2204
-2179
-2200
-2231
-2251
-2250
-2242
-2229
-2202
-2196
-2224
-2252
-2254
-2248
-2211
-2186
-2178
-2191
-2237
-2296
-2312
-2285
-2222
-2181
-2159
-2165
-2205
-2264
-2312
-2299
-2252
-2215
-2174
-2159
-2184
-2239
-2287
-2291
-2262
-2227
-2211
-2186
-2193
-2229
-2262
-2262
-2249
-2237
-2224
-2211
-2227
-2260
-2271
-2236
-2208
-2194
-2186
-2196
-2237
-2283
-2300
-2282
-2231
-2191
-2167
-2160
-2190
-2252
-2315
-2317
-2267
-2218
-2161
-2157
-2171
-2220
-2264
-2287
-2278
-2249
-2213
-2182
-2191
-2235
-2260
-2248
-2226
-2227
-2222
-2215
-2234
-2249
-2266
-2252
-2203
-2192
-2189
-2199
-2225
-2272
-2300
-2288
-2227
-2179
-2160
-2165
-2212
-2254
-2297
-2296
-2261
-2211
-2165
-2146
-2180
-2247
-2293
-2290
-2271
-2228
-2215
-2191
-2198
-2229
-2266
-2260
-2242
-2224
-2192
-2121
-2064
-2014
-1952
-1858
-1744
-1666
-1612
-1599
-1582
-1583
-1579
-1559
-1498
-1449
-1436
-1447
-1481
-1566
-1662
-1702
-1711
-1710
-1734
-1780
-1884
-1997
-2116
-2200
-2237
-2229
-2210
-2184
-2206
-2233
-2257
-2260
-2244
-2211
-2210
-2219
-2243
-2261
-2262
-2249
-2213
-2186
-2182
-2192
-2221
-2272
-2292
-2279
-2224
-2190
-2179
-2226
-2409
-2635
-2812
-2546
-1719
-714
307
1311
2224
2462
1864
1025
137
-771
-1667
-2220
-2348
-2349
-2321
-2275
-2231
-2216
-2204
-2207
-2241
-2267
-2272
-2243
-2212
-2177
-2175
-2184
-2214
-2284
-2319
-2277
-2222
-2181
-2179
-2168
-2202
-2251
-2302
-2299
-2265
-2221
-2167
-2141
-2134
-2145
-2169
-2151
-2104
-2038
-1965
-1917
-1887
-1874
-1849
-1807
-1754
-1698
-1667
-1636
-1632
-1639
-1622
-1569
-1500
-1431
-1402
-1402
-1424
-1451
-1460
-1421
-1366
-1305
-1274
-1271
-1331
-1372
-1414
-1409
-1387
-1361
-1357
-1366
-1397
-1464
-1537
-1589
-1598
-1602
-1627
-1633
-1686
-1757
-1840
-1876
-1910
-1929
-1976
-2031
-2084
-2156
-2234
-2237
-2206
-2186
-2182
-2188
-2220
-2251
-2284
-2276
-2240
-2190
-2163
-2176
-2202
-2254
-2311
-2299
-2257
-2211
-2179
-2165
-2181
-2234
-2275
-2287
-2266
-2231
-2217
-2197
-2213
-2235
-2254
-2247
-2247
-2227
-2212
-2207
-2224
-2246
-2277
-2270
-2216
-2181
-2184
-2186
-2234
-2286
-2309
-2284
-2244
-2209
-2176
-2162
-2202
-2264
-2306
-2305
-2267
-2219
-2187
-2167
-2180
-2227
-2278
-2274
-2265
-2251
-2217
-2184
-2209
-2234
-2256
-2243
-2238
-2211
-2207
-2206
-2220
-2259
-2277
-2243
-2216
-2188
-2177
-2175
-2209
-2274
-2311
-2267
-2231
-2201
-2177
-2159
-2179
-2231
-2291
-2302
-2255
-2219
-2182
-2169
-2174
-2225
-2281
-2297
-2271
-2234
-2210
-2201
-2205
-2217
-2240
-2246
-2222
-2219
-2224
-2221
-2236
-2259
-2265
-2271
-2232
-2191
-2189
-2195
-2221
-2256
-2310
-2284
-2237
-2184
-2152
-2164
-2207
-2266
-2284
-2207
-2086
-1964
-1861
-1772
-1712
-1699
-1711
-1666
-1607
-1524
-1473
-1446
-1454
-1499
-1519
-1505
-1510
-1536
-1569
-1626
-1694
-1757
-1832
-1896
-1919
-1964
-2039
-2116
-2204
-2267
-2286
-2292
-2255
-2194
-2165
-2161
-2205
-2268
-2297
-2302
-2275
-2217
-2191
-2180
-2186
-2232
-2277
-2277
-2247
-2232
-2216
-2191
-2197
-2239
-2253
-2317
-2439
-2591
-2710
-2464
-1713
-798
174
1203
2203
2532
1989
1120
174
-804
-1753
-2312
-2399
-2326
-2217
-2162
-2201
-2262
-2304
-2304
-2269
-2224
-2185
-2175
-2189
-2222
-2274
-2271
-2252
-2229
-2212
-2206
-2198
-2226
-2242
-2229
-2224
-2217
-2204
-2216
-2234
-2257
-2273
-2239
-2191
-2135
-2092
-2081
-2072
-2091
-2078
-2006
-1914
-1830
-1764
-1716
-1711
-1734
-1754
-1720
-1662
-1588
-1528
-1478
-1471
-1494
-1494
-1473
-1449
-1404
-1372
-1336
-1321
-1344
-1374
-1358
-1329
-1310
-1315
-1340
-1377
-1414
-1440
-1447
-1430
-1429
-1453
-1496
-1572
-1646
-1706
-1717
-1712
-1716
-1749
-1781
-1847
-1966
-2064
-2111
-2127
-2132
-2134
-2151
-2171
-2216
-2264
-2277
-2261
-2237
-2206
-2204
-2212
-2231
-2248
-2244
-2226
-2200
-2209
-2207
-2227
-2257
-2271
-2247
-2217
-2189
-2169
-2173
-2231
-2278
-2290
-2261
-2228
-2200
-2163
-2146
-2174
-2241
-2283
-2283
-2241
-2210
-2177
-2147
-2187
-2239
-2279
-2270
-2249
-2227
-2206
-2187
-2207
-2236
-2255
-2240
-2202
-2206
-2212
-2204
-2229
-2264
-2276
-2251
-2227
-2179
-2166
-2165
-2212
-2284
-2300
-2269
-2239
-2191
-2158
-2155
-2189
-2256
-2294
-2299
-2266
-2217
-2184
-2170
-2176
-2217
-2272
-2276
-2247
-2227
-2219
-2201
-2204
-2232
-2262
-2249
-2222
-2203
-2204
-2202
-2223
-2256
-2275
-2251
-2216
-2184
-2172
-2171
-2216
-2267
-2294
-2287
-2242
-2189
-2157
-2162
-2199
-2257
-2306
-2302
-2267
-2233
-2193
-2163
-2181
-2212
-2266
-2287
-2264
-2222
-2212
-2194
-2200
-2224
-2248
-2249
-2244
-2204
-2170
-2104
-2054
-2016
-1937
-1848
-1746
-1669
-1616
-1589
-1579
-1579
-1568
-1549
-1499
-1443
-1423
-1417
-1481
-1581
-1652
-1691
-1706
-1704
-1722
-1777
-1886
-2003
-2121
-2204
-2235
-2222
-2208
-2200
-2196
-2225
-2251
-2246
-2217
-2214
-2189
-2200
-2235
-2259
-2271
-2246
-2212
-2191
-2180
-2186
-2209
-2269
-2296
-2292
-2252
-2196
-2160
-2219
-2389
-2615
-2798
-2542
-1744
-750
269
1274
2215
2464
1895
1065
166
-743
-1660
-2230
-2354
-2345
-2297
-2247
-2224
-2202
-2194
-2190
-2225
-2258
-2271
-2247
-2205
-2171
-2174
-2179
-2202
-2271
-2309
-2286
-2232
-2179
-2146
-2152
-2196
-2242
-2282
-2288
-2268
-2216
-2184
-2145
-2140
-2149
-2157
-2154
-2092
-2041
-1995
-1929
-1879
-1864
-1843
-1765
-1722
-1687
-1654
-1620
-1622
-1627
-1596
-1557
-1496
-1437
-1392
-1391
-1402
-1432
-1445
-1413
-1335
-1294
-1262
-1264
-1297
-1360
-1397
-1399
-1396
-1392
-1363
-1358
-1398
-1457
-1517
-1571
-1591
-1601
-1622
-1646
-1691
-1765
-1844
-1878
-1894
-1927
-1970
-2023
-2086
-2163
-2227
-2231
-2207
-2186
-2182
-2186
-2211
-2262
-2310
-2278
-2222
-2188
-2160
-2152
-2181
-2257
-2288
-2286
-2251
-2211
-2170
-2146
-2169
-2211
-2245
-2276
-2266
-2219
-2199
-2181
-2214
-2237
-2262
-2241
-2221
-2214
-2209
-2202
-2221
-2252
-2271
-2261
-2197
-2161
-2155
-2169
-2204
-2254
-2297
-2289
-2241
-2190
-2157
-2151
-2194
-2245
-2281
-2305
-2280
-2214
-2182
-2164
-2172
-2220
-2256
-2265
-2252
-2233
-2207
-2187
-2189
-2226
-2261
-2241
-2234
-2210
-2191
-2213
-2228
-2264
-2277
-2249
-2209
-2182
-2177
-2171
-2202
-2257
-2297
-2281
-2247
-2186
-2162
-2156
-2181
-2234
-2295
-2294
-2268
-2240
-2201
-2163
-2166
-2210
-2265
-2270
-2228
-2214
-2194
-2189
-2196
-2215
-2242
-2244
-2229
-2208
-2201
-2197
-2221
-2252
-2271
-2254
-2201
-2170
-2156
-2175
-2212
-2265
-2297
-2271
-2219
-2197
-2171
-2146
-2180
-2235
-2254
-2191
-2096
-1995
-1866
-1767
-1719
-1703
-1684
-1653
-1577
-1522
-1486
-1456
-1466
-1499
-1508
-1492
-1487
-1506
-1544
-1604
-1669
-1732
-1814
-1875
-1912
-1951
-2008
-2087
-2177
-2244
-2282
-2274
-2236
-2174
-2147
-2151
-2184
-2252
-2282
-2282
-2254
-2221
-2189
-2171
-2179
-2220
-2255
-2254
-2249
-2224
-2204
-2193
-2196
-2227
-2269
-2313
-2418
-2564
-2697
-2461
-1727
-823
155
1186
2196
2565
2022
1161
206
-784
-1747
-2312
-2398
-2336
-2232
-2174
-2179
-2239
-2289
-2296
-2277
-2227
-2178
-2159
-2167
-2216
-2256
-2254
-2232
-2206
-2196
-2198
-2212
-2219
-2242
-2231
-2213
-2199
-2197
-2207
-2229
-2282
-2278
-2233
-2182
-2114
-2048
-2043
-2056
-2064
-2069
-2007
-1917
-1826
-1747
-1711
-1694
-1731
-1736
-1699
-1647
-1585
-1518
-1485
-1473
-1471
-1469
-1461
-1441
-1395
-1350
-1337
-1335
-1356
-1367
-1342
-1309
-1304
-1304
-1307
-1363
-1421
-1467
-1457
-1429
-1410
-1442
-1479
-1557
-1642
-1714
-1729
-1725
-1720
-1733
-1768
-1841
-1967
-2061
-2107
-2136
-2142
-2152
-2159
-2162
-2208
-2251
-2261
-2261
-2217
-2197
-2193
-2206
-2220
-2242
-2247
-2212
-2210
-2209
-2202
-2226
-2272
-2287
-2253
-2203
-2172
-2172
-2191
-2217
-2257
-2290
-2282
-2248
-2196
-2176
-2155
-2175
-2239
-2274
-2294
-2277
-2236
-2196
-2186
-2194
-2217
-2248
-2259
-2246
-2221
-2202
-2209
-2222
-2240
-2246
-2232
-2204
-2187
-2187
-2192
-2224
-2258
-2276
-2266
-2214
-2168
-2144
-2172
-2197
-2256
-2306
-2292
-2251
-2211
-2171
-2151
-2163
-2238
-2297
-2295
-2250
-2222
-2187
-2167
-2178
-2210
-2251
-2259
-2245
-2231
-2205
-2191
-2195
-2233
-2254
-2246
-2214
-2198
-2189
-2209
-2221
-2255
-2279
-2246
-2207
-2161
-2154
-2161
-2206
-2274
-2287
-2281
-2249
-2191
-2169
-2167
-2189
-2232
-2277
-2292
-2261
-2219
-2181
-2170
-2172
-2209
-2253
-2251
-2237
-2217
-2201
-2204
-2221
-2242
-2254
-2242
-2220
-2200
-2163
-2115
-2059
-2016
-1945
-1845
-1735
-1656
-1595
-1544
-1529
-1557
-1581
-1565
-1501
-1466
-1436
-1416
-1439
-1529
-1618
-1681
-1704
-1734
-1748
-1792
-1882
-1989
-2102
-2186
-2216
-2206
-2214
-2199
-2205
-2231
-2261
-2254
-2218
-2194
-2186
-2190
-2231
-2266
-2294
-2259
-2209
-2165
-2152
-2162
-2195
-2266
-2297
-2287
-2241
-2211
-2175
-2205
-2364
-2603
-2801
-2567
-1769
-770
243
1241
2173
2477
1925
1093
181
-726
-1636
-2215
-2344
-2359
-2311
-2249
-2207
-2211
-2198
-2204
-2219
-2265
-2281
-2261
-2214
-2173
-2156
-2173
-2204
-2263
-2303
-2286
-2247
-2202
-2161
-2155
-2185
-2236
-2284
-2277
-2256
-2214
-2183
-2144
-2126
-2146
-2149
-2127
-2082
-2020
-1987
-1943
-1902
-1872
-1842
-1796
-1725
-1679
-1656
-1625
-1621
-1641
-1620
-1572
-1496
-1441
-1387
-1367
-1409
-1433
-1446
-1432
-1373
-1309
-1276
-1266
-1309
-1355
-1394
-1389
-1388
-1390
-1378
-1368
-1396
-1447
-1513
-1561
-1584
-1612
-1627
-1659
-1709
-1775
-1827
-1867
-1888
-1913
-1947
-2007
-2093
-2182
-2245
-2252
-2217
-2187
-2157
-2175
-2202
-2254
-2296
-2294
-2256
-2193
-2154
-2142
-2171
-2223
-2281
-2281
-2261
-2249
-2199
-2183
-2192
-2222
-2251
-2269
-2251
-2219
-2210
-2214
-2202
-2233
-2250
-2231
-2212
-2204
-2206
-2197
-2219
-2267
-2286
-2270
-2216
-2192
-2178
-2171
-2197
-2261
-2302
-2289
-2247
-2201
-2161
-2155
-2181
-2221
-2272
-2281
-2273
-2235
-2194
-2183
-2197
-2217
-2241
-2251
-2234
-2231
-2209
-2192
-2214
-2226
-2246
-2254
-2217
-2202
-2195
-2196
-2238
-2284
-2287
-2270
-2227
-2196
-2162
-2161
-2203
-2260
-2312
-2301
-2255
-2216
-2179
-2151
-2176
-2219
-2271
-2282
-2266
-2242
-2197
-2177
-2181
-2210
-2242
-2257
-2248
-2231
-2211
-2203
-2202
-2226
-2234
-2242
-2214
-2204
-2188
-2194
-2227
-2265
-2282
-2249
-2214
-2185
-2161
-2166
-2204
-2266
-2305
-2286
-2251
-2202
-2151
-2140
-2182
-2241
-2261
-2189
-2106
-2002
-1872
-1772
-1719
-1690
-1667
-1653
-1584
-1514
-1464
-1464
-1477
-1505
-1523
-1492
-1482
-1497
-1527
-1589
-1668
-1741
-1826
-1895
-1917
-1961
-2011
-2089
-2187
-2251
-2300
-2294
-2251
-2216
-2176
-2144
-2171
-2238
-2277
-2284
-2252
-2216
-2189
-2179
-2187
-2219
-2257
-2260
-2258
-2234
-2205
-2194
-2207
-2241
-2255
-2289
-2397
-2549
-2699
-2461
-1744
-846
136
1148
2160
2556
2038
1191
241
-760
-1714
-2304
-2399
-2338
-2234
-2181
-2188
-2222
-2268
-2280
-2263
-2227
-2194
-2186
-2186
-2217
-2239
-2246
-2242
-2224
-2202
-2188
-2214
-2246
-2259
-2224
-2203
-2190
-2185
-2197
-2221
-2267
-2281
-2246
-2185
-2122
-2059
-2038
-2049
-2068
-2071
-2031
-1942
-1842
-1754
-1704
-1689
-1703
-1731
-1692
-1657
-1595
-1532
-1487
-1479
-1480
-1483
-1474
-1438
-1397
-1364
-1339
-1335
-1364
-1387
-1359
-1326
-1301
-1288
-1317
-1369
-1430
-1457
-1442
-1432
-1419
-1432
-1471
-1544
-1624
-1695
-1721
-1730
-1729
-1741
-1772
-1851
-1941
-2031
-2102
-2124
-2145
-2155
-2160
-2182
-2204
-2247
-2237
-2226
-2208
-2206
-2200
-2210
-2231
-2256
-2244
-2214
-2192
-2184
-2191
-2228
-2272
-2289
-2273
-2225
-2177
-2147
-2161
-2218
-2267
-2290
-2295
-2261
-2212
-2169
-2149
-2175
-2223
-2279
-2297
-2260
-2232
-2204
-2172
-2181
-2204
-2246
-2256
-2231
-2210
-2200
-2209
-2211
-2238
-2256
-2247
-2226
-2199
-2180
-2186
-2209
-2253
-2283
-2259
-2218
-2184
-2164
-2147
-2204
-2254
-2297
-2306
-2263
-2211
-2166
-2163
-2179
-2231
-2286
-2288
-2268
-2231
-2203
-2197
-2192
-2210
-2237
-2254
-2241
-2223
-2199
-2196
-2211
-2256
-2267
-2239
-2206
-2192
-2187
-2194
-2232
-2276
-2303
-2277
-2235
-2196
-2165
-2155
-2200
-2258
-2304
-2280
-2259
-2213
-2172
-2161
-2176
-2235
-2264
-2289
-2267
-2226
-2198
-2190
-2180
-2212
-2242
-2248
-2246
-2241
-2218
-2198
-2216
-2234
-2255
-2244
-2216
-2195
-2162
-2109
-2072
-2044
-1988
-1877
-1776
-1671
-1587
-1552
-1561
-1565
-1567
-1566
-1506
-1462
-1442
-1416
-1456
-1549
-1631
-1674
-1706
-1702
-1723
-1787
-1889
-1983
-2104
-2189
-2211
-2220
-2207
-2196
-2203
-2239
-2250
-2234
-2207
-2189
-2181
-2193
-2225
-2261
-2297
-2273
-2225
-2195
-2153
-2153
-2186
-2260
-2311
-2302
-2255
-2189
-2165
-2222
-2371
-2583
-2776
-2556
-1771
-795
201
1217
2173
2482
1936
1115
227
-687
-1606
-2217
-2366
-2371
-2329
-2259
-2221
-2180
-2162
-2174
-2221
-2263
-2279
-2258
-2217
-2182
-2166
-2153
-2192
-2240
-2287
-2290
-2252
-2200
-2172
-2153
-2170
-2207
-2259
-2254
-2245
-2236
-2213
-2179
-2159
-2146
-2138
-2112
-2076
-2031
-1980
-1951
-1912
-1882
-1862
-1809
-1732
-1657
-1620
-1621
-1621
-1634
-1628
-1579
-1516
-1438
-1389
-1367
-1384
-1429
-1454
-1429
-1371
-1320
-1295
-1272
-1282
-1319
-1376
-1387
-1401
-1394
-1387
-1370
-1402
-1459
-1506
-1554
-1574
-1596
-1626
-1646
-1701
-1788
-1848
-1873
-1896
-1914
-1929
-1981
-2080
-2174
-2253
-2267
-2217
-2172
-2137
-2151
-2213
-2252
-2286
-2282
-2261
-2200
-2181
-2154
-2168
-2217
-2268
-2269
-2250
-2234
-2209
-2176
-2195
-2220
-2244
-2247
-2225
-2222
-2202
-2201
-2219
-2244
-2257
-2249
-2210
-2187
-2191
-2188
-2215
-2259
-2276
-2275
-2232
-2183
-2157
-2144
-2186
-2242
-2276
-2271
-2254
-2201
-2163
-2149
-2174
-2236
-2274
-2275
-2253
-2219
-2202
-2185
-2192
-2222
-2263
-2253
-2230
-2210
-2212
-2201
-2211
-2243
-2264
-2254
-2204
-2187
-2176
-2176
-2229
-2280
-2290
-2254
-2226
-2190
-2152
-2155
-2180
-2245
-2310
-2294
-2259
-2214
-2185
-2166
-2184
-2227
-2274
-2289
-2261
-2228
-2201
-2196
-2202
-2227
-2251
-2242
-2222
-2211
-2194
-2179
-2214
-2247
-2264
-2248
-2221
-2201
-2186
-2175
-2202
-2249
-2279
-2268
-2236
-2185
-2153
-2152
-2194
-2247
-2287
-2287
-2252
-2202
-2154
-2144
-2159
-2205
-2226
-2179
-2111
-2002
-1889
-1783
-1717
-1692
-1677
-1632
-1572
-1502
-1462
-1460
-1491
-1519
-1520
-1506
-1481
-1481
-1513
-1580
-1664
-1754
-1846
-1891
-1921
-1954
-2007
-2084
-2172
-2237
-2291
-2302
-2259
-2209
-2174
-2154
-2172
-2217
-2262
-2282
-2262
-2236
-2206
-2184
-2192
-2204
-2241
-2238
-2225
-2214
-2210
-2216
-2219
-2247
-2259
-2313
-2406
-2531
-2669
-2451
-1742
-856
98
1127
2154
2568
2063
1223
268
-721
-1695
-2298
-2403
-2334
-2239
-2186
-2182
-2209
-2261
-2269
-2262
-2230
-2221
-2172
-2189
-2212
-2242
-2252
-2229
-2209
-2202
-2211
-2216
-2240
-2265
-2243
-2204
-2165
-2165
-2196
-2226
-2250
-2285
-2263
-2187
-2104
-2061
-2029
-2039
-2067
-2067
-2026
-1946
-1851
-1763
-1707
-1683
-1705
-1727
-1689
-1646
-1591
-1531
-1484
-1474
-1485
-1495
-1467
-1415
-1379
-1356
-1339
-1354
-1370
-1375
-1355
-1314
-1286
-1282
-1299
-1366
-1419
-1459
-1456
-1443
-1416
-1416
-1452
-1525
-1604
-1701
-1750
-1760
-1746
-1752
-1787
-1837
-1919
-2022
-2073
-2121
-2141
-2157
-2178
-2187
-2212
-2241
-2241
-2233
-2209
-2203
-2191
-2209
-2232
-2258
-2254
-2204
-2170
-2161
-2177
-2222
-2271
-2298
-2274
-2236
-2194
-2161
-2146
-2189
-2246
-2309
-2290
-2249
-2206
-2168
-2146
-2159
-2206
-2251
-2261
-2266
-2234
-2198
-2177
-2183
-2216
-2256
-2241
-2219
-2197
-2192
-2197
-2222
-2250
-2269
-2254
-2205
-2172
-2187
-2187
-2224
-2266
-2300
-2267
-2230
-2182
-2158
-2153
-2184
-2237
-2286
-2303
-2268
-2209
-2171
-2162
-2167
-2207
-2262
-2277
-2242
-2222
-2193
-2169
-2195
-2226
-2239
-2225
-2224
-2206
-2202
-2202
-2210
-2237
-2260
-2236
-2201
-2176
-2161
-2162
-2202
-2261
-2292
-2271
-2235
-2184
-2151
-2168
-2195
-2252
-2286
-2286
-2266
-2207
-2167
-2146
-2177
-2225
-2257
-2267
-2260
-2230
-2198
-2177
-2201
-2222
-2253
-2252
-2231
-2214
-2201
-2199
-2217
-2230
-2266
-2251
-2219
-2184
-2155
-2087
-2054
-2036
-1976
-1869
-1757
-1668
-1586
-1542
-1544
-1554
-1557
-1543
-1514
-1471
-1442
-1430
-1452
-1523
-1611
-1659
-1694
-1714
-1737
-1802
-1887
-1986
-2082
-2160
-2199
-2211
-2202
-2199
-2224
-2255
-2264
-2251
-2215
-2174
-2168
-2167
-2206
-2258
-2288
-2271
-2224
-2182
-2151
-2147
-2181
-2246
-2287
-2275
-2253
-2217
-2176
-2209
-2357
-2584
-2757
-2552
-1777
-809
200
1198
2148
2491
1961
1149
257
-679
-1595
-2214
-2371
-2367
-2327
-2257
-2212
-2168
-2169
-2174
-2204
-2247
-2283
-2278
-2239
-2187
-2163
-2161
-2202
-2246
-2287
-2296
-2261
-2222
-2188
-2162
-2157
-2211
-2250
-2265
-2254
-2229
-2204
-2177
-2152
-2147
-2156
-2123
-2064
-2016
-1972
-1926
-1899
-1886
-1864
-1794
-1729
-1651
-1609
-1603
-1613
-1622
-1615
-1579
-1514
-1438
-1379
-1351
-1377
-1414
-1448
-1413
-1374
-1317
-1291
-1269
-1279
-1332
-1381
-1402
-1389
-1383
-1382
-1379
-1407
-1463
-1519
-1546
-1561
-1579
-1612
-1637
-1711
-1794
-1856
-1872
-1874
-1887
-1937
-1995
-2063
-2167
-2243
-2256
-2225
-2186
-2141
-2132
-2174
-2239
-2293
-2292
-2255
-2217
-2196
-2159
-2151
-2201
-2247
-2256
-2251
-2228
-2202
-2181
-2208
-2232
-2239
-2239
-2225
-2217
-2212
-2196
-2227
-2264
-2274
-2244
-2201
-2173
-2167
-2167
-2209
-2261
-2291
-2276
-2223
-2181
-2151
-2153
-2186
-2231
-2268
-2281
-2246
-2214
-2177
-2160
-2176
-2206
-2249
-2268
-2250
-2228
-2208
-2184
-2182
-2217
-2239
-2237
-2227
-2206
-2194
-2192
-2214
-2243
-2262
-2239
-2197
-2174
-2168
-2170
-2207
-2252
-2290
-2279
-2249
-2194
-2158
-2144
-2176
-2239
-2281
-2289
-2269
-2221
-2164
-2154
-2162
-2201
-2256
-2281
-2261
-2251
-2228
-2186
-2184
-2214
-2243
-2227
-2219
-2214
-2209
-2193
-2214
-2256
-2279
-2250
-2214
-2186
-2159
-2177
-2217
-2262
-2294
-2278
-2234
-2167
-2146
-2145
-2174
-2234
-2276
-2287
-2269
-2224
-2196
-2170
-2172
-2203
-2221
-2189
-2090
-1990
-1884
-1786
-1729
-1705
-1691
-1638
-1565
-1510
-1469
-1462
-1499
-1517
-1534
-1509
-1487
-1486
-1512
-1557
-1654
-1746
-1837
-1897
-1928
-1967
-2002
-2066
-2161
-2241
-2286
-2279
-2254
-2217
-2177
-2169
-2192
-2207
-2241
-2247
-2226
-2231
-2202
-2190
-2202
-2229
-2247
-2247
-2226
-2204
-2187
-2204
-2226
-2242
-2254
-2299
-2398
-2533
-2654
-2463
-1753
-864
78
1088
2121
2558
2077
1248
314
-686
-1667
-2297
-2427
-2353
-2249
-2172
-2165
-2208
-2249
-2264
-2251
-2223
-2193
-2186
-2189
-2224
-2236
-2239
-2211
-2194
-2184
-2196
-2227
-2256
-2262
-2242
-2202
-2174
-2167
-2171
-2209
-2258
-2280
-2256
-2177
-2106
-2069
-2016
-2010
-2041
-2047
-2024
-1944
-1861
-1771
-1714
-1692
-1699
-1707
-1685
-1644
-1586
-1534
-1502
-1489
-1495
-1481
-1451
-1416
-1363
-1361
-1342
-1347
-1356
-1361
-1351
-1317
-1283
-1279
-1284
-1349
-1404
-1470
-1486
-1449
-1414
-1412
-1453
-1524
-1609
-1688
-1719
-1738
-1753
-1769
-1779
-1842
-1924
-2011
-2071
-2117
-2126
-2156
-2185
-2179
-2219
-2239
-2247
-2221
-2196
-2197
-2190
-2221
-2261
-2278
-2251
-2196
-2170
-2171
-2175
-2201
-2251
-2294
-2283
-2223
-2192
-2157
-2154
-2176
-2248
-2282
-2273
-2258
-2217
-2179
-2162
-2159
-2205
-2252
-2261
-2243
-2221
-2205
-2187
-2197
-2229
-2237
-2237
-2217
-2192
-2197
-2203
-2202
-2233
-2249
-2251
-2223
-2179
-2140
-2144
-2187
-2240
-2297
-2296
-2241
-2182
-2149
-2135
-2179
-2226
-2287
-2288
-2259
-2227
-2183
-2161
-2171
-2202
-2249
-2254
-2243
-2232
-2205
-2188
-2196
-2225
-2249
-2237
-2221
-2187
-2184
-2191
-2201
-2241
-2262
-2247
-2212
-2169
-2142
-2177
-2212
-2248
-2297
-2281
-2231
-2184
-2154
-2154
