
-36305
-27471
-21249
-16740
-13382
-10871
-8997
-7552
-6454
-5570
-4838
-4322
-4023
-3854
-3796
-3821
-3585
-2785
-1752
-636
497
1595
2163
1740
939
33
-893
-1795
-2437
-2579
-2520
-2446
-2407
-2404
-2395
-2391
-2356
-2340
-2327
-2336
-2363
-2387
-2377
-2347
-2301
-2290
-2309
-2342
-2386
-2406
-2371
-2327
-2284
-2242
-2218
-2211
-2217
-2241
-2218
-2154
-2062
-1967
-1912
-1882
-1891
-1882
-1857
-1808
-1758
-1701
-1650
-1632
-1625
-1637
-1624
-1586
-1532
-1504
-1476
-1472
-1477
-1474
-1451
-1418
-1400
-1390
-1397
-1429
-1480
-1524
-1530
-1494
-1473
-1461
-1489
-1544
-1639
-1717
-1762
-1751
-1752
-1745
-1782
-1836
-1933
-2021
-2073
-2106
-2121
-2146
-2169
-2223
-2292
-2333
-2354
-2326
-2319
-2305
-2296
-2290
-2314
-2350
-2336
-2311
-2270
-2265
-2279
-2306
-2347
-2373
-2366
-2322
-2269
-2250
-2252
-2264
-2328
-2375
-2376
-2341
-2297
-2253
-2232
-2234
-2302
-2358
-2361
-2339
-2315
-2286
-2267
-2267
-2298
-2333
-2342
-2322
-2289
-2284
-2281
-2287
-2329
-2354
-2326
-2296
-2264
-2254
-2262
-2296
-2324
-2352
-2345
-2308
-2252
-2232
-2233
-2267
-2329
-2373
-2362
-2321
-2285
-2250
-2231
-2229
-2276
-2331
-2342
-2333
-2307
-2272
-2258
-2260
-2286
-2324
-2324
-2311
-2282
-2266
-2259
-2274
-2307
-2341
-2324
-2278
-2264
-2249
-2258
-2276
-2307
-2293
-2193
-2084
-1957
-1832
-1752
-1734
-1751
-1749
-1711
-1618
-1554
-1492
-1484
-1509
-1559
-1596
-1619
-1631
-1649
-1660
-1686
-1724
-1806
-1915
-2005
-2084
-2136
-2176
-2239
-2280
-2304
-2311
-2311
-2291
-2267
-2254
-2267
-2291
-2335
-2361
-2352
-2292
-2241
-2222
-2226
-2264
-2317
-2361
-2360
-2324
-2286
-2237
-2265
-2414
-2622
-2839
-2711
-1992
-1031
-18
991
1951
2433
1997
1200
309
-604
-1529
-2217
-2422
-2445
-2389
-2328
-2285
-2260
-2247
-2243
-2272
-2326
-2351
-2342
-2294
-2254
-2249
-2221
-2269
-2322
-2374
-2374
-2332
-2287
-2247
-2213
-2208
-2223
-2256
-2244
-2179
-2122
-2064
-1981
-1929
-1914
-1904
-1861
-1816
-1769
-1725
-1704
-1697
-1689
-1678
-1632
-1577
-1511
-1491
-1479
-1476
-1497
-1522
-1501
-1429
-1362
-1332
-1326
-1358
-1426
-1484
-1490
-1461
-1433
-1416
-1418
-1451
-1527
-1602
-1643
-1664
-1669
-1672
-1693
-1743
-1810
-1897
-1931
-1964
-2011
-2051
-2081
-2134
-2217
-2271
-2306
-2271
-2252
-2262
-2269
-2286
-2341
-2359
-2324
-2301
-2269
-2223
-2231
-2255
-2303
-2354
-2364
-2334
-2287
-2240
-2219
-2242
-2290
-2323
-2336
-2325
-2290
-2261
-2249
-2251
-2287
-2321
-2321
-2307
-2275
-2272
-2267
-2282
-2313
-2332
-2327
-2289
-2272
-2242
-2250
-2286
-2323
-2363
-2344
-2297
-2264
-2237
-2229
-2264
-2317
-2369
-2363
-2336
-2283
-2246
-2229
-2240
-2285
-2342
-2351
-2335
-2312
-2286
-2262
-2250
-2279
-2322
-2313
-2291
-2288
-2290
-2275
-2286
-2327
-2352
-2325
-2286
-2256
-2242
-2256
-2289
-2342
-2378
-2360
-2297
-2253
-2226
-2222
-2255
-2313
-2364
-2347
-2257
-2141
-2018
-1930
-1866
-1841
-1829
-1786
-1734
-1664
-1592
-1534
-1516
-1549
-1600
-1606
-1581
-1567
-1587
-1620
-1679
-1755
-1822
-1866
-1902
-1951
-2021
-2090
-2188
-2307
-2349
-2346
-2311
-2263
-2233
-2233
-2272
-2331
-2370
-2369
-2346
-2302
-2256
-2230
-2249
-2294
-2339
-2351
-2332
-2314
-2286
-2262
-2264
-2342
-2507
-2667
-2812
-2667
-1975
-1046
-86
880
1866
2408
2036
1259
363
-581
-1542
-2291
-2519
-2486
-2384
-2306
-2242
-2232
-2260
-2325
-2376
-2374
-2327
-2285
-2257
-2233
-2251
-2298
-2352
-2363
-2352
-2341
-2313
-2271
-2271
-2294
-2292
-2287
-2249
-2203
-2137
-2098
-2079
-2060
-2037
-1988
-1898
-1830
-1792
-1772
-1762
-1774
-1787
-1747
-1661
-1586
-1539
-1499
-1511
-1562
-1587
-1569
-1507
-1438
-1392
-1366
-1380
-1431
-1482
-1494
-1481
-1449
-1449
-1444
-1469
-1523
-1569
-1601
-1605
-1612
-1646
-1682
-1742
-1810
-1886
-1912
-1914
-1932
-1977
-2021
-2078
-2177
-2252
-2286
-2286
-2269
-2256
-2239
-2268
-2314
-2374
-2390
-2344
-2300
-2245
-2231
-2236
-2282
-2339
-2361
-2337
-2311
-2279
-2251
-2252
-2278
-2314
-2306
-2313
-2299
-2274
-2262
-2272
-2290
-2312
-2303
-2269
-2245
-2234
-2232
-2277
-2328
-2349
-2327
-2289
-2252
-2210
-2196
-2236
-2286
-2337
-2342
-2311
-2266
-2225
-2197
-2214
-2259
-2307
-2334
-2327
-2296
-2277
-2240
-2233
-2257
-2291
-2297
-2288
-2271
-2263
-2251
-2266
-2291
-2294
-2293
-2266
-2241
-2219
-2236
-2265
-2304
-2339
-2317
-2285
-2239
-2200
-2202
-2240
-2288
-2333
-2353
-2299
-2260
-2222
-2201
-2212
-2257
-2299
-2326
-2317
-2258
-2171
-2089
-2024
-1960
-1913
-1848
-1766
-1701
-1646
-1601
-1572
-1545
-1569
-1548
-1517
-1482
-1485
-1493
-1552
-1645
-1719
-1763
-1764
-1770
-1806
-1864
-1977
-2109
-2233
-2299
-2300
-2244
-2219
-2192
-2211
-2249
-2287
-2311
-2292
-2255
-2242
-2236
-2244
-2274
-2292
-2277
-2278
-2259
-2246
-2237
-2252
-2279
-2294
-2337
-2442
-2557
-2707
-2606
-1936
-1051
-110
910
1943
2519
2144
1340
395
-598
-1585
-2292
-2471
-2404
-2302
-2217
-2207
-2256
-2303
-2313
-2305
-2286
-2252
-2235
-2232
-2258
-2294
-2299
-2291
-2277
-2261
-2256
-2272
-2293
-2325
-2317
-2251
-2189
-2151
-2129
-2136
-2142
-2122
-2071
-1996
-1891
-1806
-1782
-1781
-1790
-1821
-1792
-1733
-1653
-1610
-1565
-1542
-1562
-1569
-1555
-1534
-1500
-1465
-1421
-1400
-1419
-1441
-1449
-1435
-1411
-1399
-1423
-1446
-1484
-1542
-1541
-1533
-1526
-1554
-1582
-1651
-1725
-1803
-1831
-1819
-1821
-1834
-1872
-1954
-2048
-2167
-2227
-2250
-2239
-2246
-2274
-2283
-2327
-2380
-2399
-2374
-2341
-2307
-2286
-2281
-2293
-2314
-2324
-2311
-2296
-2282
-2273
-2274
-2304
-2336
-2314
-2286
-2254
-2251
-2256
-2287
-2327
-2357
-2349
-2306
-2254
-2237
-2240
-2257
-2311
-2384
-2377
-2352
-2313
-2267
-2247
-2262
-2283
-2329
-2353
-2340
-2316
-2306
-2278
-2271
-2304
-2326
-2324
-2306
-2293
-2290
-2289
-2296
-2319
-2332
-2338
-2301
-2275
-2256
-2252
-2299
-2339
-2363
-2352
-2305
-2276
-2241
-2221
-2265
-2317
-2357
-2365
-2346
-2298
-2274
-2265
-2249
-2299
-2357
-2369
-2347
-2321
-2303
-2296
-2294
-2317
-2346
-2343
-2337
-2317
-2303
-2269
-2231
-2203
-2142
-2043
-1930
-1824
-1770
-1753
-1720
-1699
-1699
-1655
-1597
-1554
-1516
-1512
-1549
-1611
-1687
-1735
-1741
-1741
-1757
-1790
-1863
-1985
-2109
-2196
-2268
-2301
-2294
-2280
-2289
-2309
-2337
-2317
-2312
-2301
-2282
-2286
-2306
-2332
-2353
-2341
-2301
-2265
-2262
-2274
-2305
-2336
-2370
-2368
-2323
-2312
-2403
-2546
-2747
-2684
-2054
-1149
-127
908
1954
2494
2068
1236
290
-659
-1584
-2254
-2429
-2407
-2338
-2309
-2329
-2323
-2312
-2297
-2296
-2292
-2296
-2335
-2352
-2346
-2313
-2276
-2264
-2269
-2285
-2351
-2389
-2379
-2334
-2281
-2216
-2172
-2179
-2220
-2224
-2214
-2159
-2064
-1991
-1909
-1872
-1853
-1869
-1870
-1832
-1772
-1717
-1660
-1626
-1642
-1651
-1604
-1559
-1529
-1511
-1488
-1478
-1487
-1497
-1461
-1404
-1382
-1386
-1391
-1424
-1469
-1522
-1525
-1496
-1478
-1459
-1469
-1534
-1640
-1725
-1771
-1774
-1755
-1752
-1777
-1831
-1926
-2030
-2091
-2122
-2144
-2169
-2194
-2241
-2313
-2353
-2360
-2354
-2324
-2302
-2312
-2327
-2350
-2373
-2353
-2325
-2297
-2280
-2284
-2309
-2360
-2396
-2387
-2357
-2300
-2269
-2271
-2287
-2345
-2400
-2416
-2379
-2331
-2291
-2263
-2282
-2320
-2376
-2393
-2373
-2356
-2344
-2316
-2317
-2328
-2354
-2361
-2364
-2354
-2322
-2308
-2349
-2379
-2396
-2388
-2352
-2317
-2311
-2321
-2344
-2382
-2426
-2414
-2370
-2331
-2292
-2284
-2321
-2373
-2421
-2429
-2396
-2338
-2319
-2282
-2287
-2335
-2391
-2412
-2399
-2377
-2344
-2309
-2306
-2337
-2360
-2371
-2368
-2338
-2323
-2318
-2337
-2379
-2384
-2373
-2346
-2314
-2302
-2312
-2330
-2364
-2341
-2248
-2131
-2000
-1892
-1822
-1791
-1785
-1792
-1762
-1696
-1626
-1554
-1521
-1532
-1584
-1614
-1645
-1664
-1674
-1700
-1725
-1769
-1838
-1945
-2019
-2082
-2146
-2213
-2280
-2306
-2335
-2351
-2349
-2326
-2291
-2270
-2264
-2289
-2350
-2395
-2371
-2327
-2281
-2252
-2243
-2274
-2334
-2377
-2389
-2355
-2310
-2278
-2302
-2422
-2619
-2844
-2749
-2042
-1091
-98
913
1898
2402
2000
1209
331
-606
-1534
-2242
-2457
-2486
-2449
-2367
-2306
-2269
-2261
-2277
-2297
-2342
-2375
-2369
-2322
-2283
-2250
-2241
-2254
-2307
-2372
-2374
-2333
-2304
-2271
-2233
-2222
-2231
-2249
-2257
-2222
-2147
-2072
-2011
-1971
-1948
-1944
-1902
-1840
-1796
-1752
-1731
-1707
-1712
-1701
-1657
-1601
-1542
-1489
-1462
-1483
-1523
-1544
-1524
-1466
-1401
-1364
-1355
-1367
-1423
-1493
-1513
-1485
-1457
-1430
-1429
-1471
-1531
-1611
-1657
-1674
-1686
-1711
-1724
-1768
-1838
-1916
-1959
-1993
-2018
-2051
-2098
-2161
-2223
-2281
-2316
-2302
-2273
-2268
-2272
-2309
-2353
-2388
-2386
-2330
-2288
-2260
-2241
-2257
-2322
-2380
-2401
-2367
-2318
-2284
-2267
-2253
-2291
-2345
-2364
-2364
-2332
-2296
-2269
-2286
-2321
-2345
-2342
-2330
-2319
-2294
-2289
-2314
-2351
-2360
-2362
-2322
-2283
-2274
-2288
-2314
-2356
-2387
-2382
-2354
-2302
-2273
-2266
-2301
-2357
-2393
-2406
-2381
-2337
-2296
-2281
-2287
-2326
-2359
-2398
-2384
-2358
-2333
-2309
-2309
-2339
-2371
-2374
-2350
-2338
-2330
-2326
-2339
-2359
-2373
-2383
-2334
-2311
-2298
-2292
-2338
-2376
-2410
-2396
-2342
-2304
-2280
-2282
-2304
-2368
-2412
-2396
-2322
-2189
-2080
-1989
-1909
-1881
-1880
-1837
-1789
-1727
-1656
-1604
-1598
-1619
-1649
-1644
-1623
-1624
-1645
-1679
-1731
-1804
-1881
-1926
-1947
-1987
-2050
-2128
-2245
-2357
-2409
-2415
-2387
-2346
-2319
-2304
-2334
-2385
-2419
-2429
-2409
-2366
-2329
-2316
-2312
-2350
-2399
-2410
-2393
-2367
-2351
-2345
-2337
-2399
-2565
-2719
-2866
-2741
-2062
-1132
-175
784
1753
2335
2000
1237
348
-605
-1575
-2323
-2590
-2573
-2460
-2358
-2302
-2288
-2319
-2374
-2425
-2431
-2420
-2373
-2328
-2303
-2321
-2352
-2401
-2419
-2412
-2397
-2361
-2349
-2342
-2352
-2369
-2352
-2307
-2259
-2202
-2178
-2158
-2139
-2102
-2046
-1970
-1889
-1837
-1809
-1801
-1817
-1830
-1797
-1729
-1642
-1582
-1546
-1551
-1586
-1619
-1623
-1558
-1496
-1436
-1387
-1416
-1451
-1498
-1528
-1496
-1460
-1452
-1469
-1506
-1542
-1574
-1592
-1612
-1647
-1665
-1694
-1741
-1802
-1863
-1902
-1907
-1907
-1932
-1987
-2083
-2175
-2262
-2306
-2311
-2304
-2281
-2272
-2283
-2331
-2404
-2406
-2387
-2354
-2299
-2274
-2271
-2322
-2354
-2367
-2362
-2331
-2318
-2305
-2304
-2318
-2337
-2349
-2360
-2312
-2298
-2314
-2339
-2358
-2381
-2361
-2327
-2296
-2279
-2292
-2322
-2364
-2413
-2392
-2360
-2329
-2268
-2253
-2291
-2337
-2385
-2394
-2377
-2330
-2291
-2267
-2276
-2308
-2347
-2380
-2368
-2340
-2308
-2293
-2288
-2306
-2338
-2342
-2336
-2321
-2310
-2311
-2329
-2356
-2366
-2366
-2330
-2297
-2286
-2281
-2313
-2359
-2403
-2404
-2359
-2303
-2256
-2250
-2285
-2349
-2402
-2402
-2373
-2322
-2285
-2272
-2271
-2309
-2361
-2386
-2377
-2321
-2246
-2159
-2082
-2038
-1977
-1907
-1834
-1762
-1715
-1668
-1656
-1637
-1652
-1619
-1583
-1561
-1536
-1545
-1621
-1712
-1786
-1821
-1817
-1814
-1871
-1938
-2029
-2162
-2306
-2379
-2367
-2327
-2293
-2271
-2277
-2327
-2364
-2381
-2374
-2351
-2317
-2300
-2304
-2324
-2347
-2341
-2334
-2319
-2310
-2305
-2307
-2354
-2378
-2408
-2508
-2626
-2758
-2672
-2022
-1152
-216
781
1826
2458
2104
1304
373
-617
-1603
-2329
-2534
-2484
-2385
-2300
-2292
-2322
-2362
-2378
-2365
-2334
-2316
-2294
-2279
-2304
-2349
-2345
-2334
-2311
-2294
-2300
-2316
-2353
-2368
-2354
-2303
-2249
-2187
-2162
-2162
-2187
-2196
-2143
-2044
-1954
-1869
-1807
-1813
-1839
-1843
-1829
-1781
-1699
-1634
-1591
-1586
-1589
-1598
-1587
-1555
-1521
-1487
-1452
-1431
-1423
-1463
-1453
-1443
-1428
-1429
-1422
-1458
-1504
-1540
-1555
-1549
-1534
-1541
-1587
-1657
-1741
-1806
-1827
-1825
-1827
-1843
-1869
-1939
-2051
-2149
-2199
-2222
-2230
-2232
-2242
-2254
-2314
-2354
-2383
-2372
-2348
-2316
-2303
-2301
-2304
-2324
-2351
-2340
-2313
-2301
-2288
-2322
-2347
-2375
-2356
-2330
-2306
-2273
-2273
-2297
-2365
-2401
-2402
-2369
-2306
-2267
-2271
-2281
-2343
-2403
-2395
-2369
-2324
-2297
-2271
-2287
-2321
-2372
-2386
-2381
-2342
-2326
-2304
-2299
-2327
-2346
-2353
-2341
-2322
-2302
-2308
-2323
-2339
-2370
-2364
-2329
-2287
-2280
-2276
-2311
-2372
-2424
-2411
-2340
-2301
-2273
-2260
-2279
-2334
-2397
-2394
-2371
-2330
-2292
-2263
-2267
-2310
-2360
-2379
-2366
-2343
-2327
-2305
-2292
-2317
-2358
-2372
-2330
-2310
-2307
-2274
-2245
-2207
-2158
-2066
-1961
-1847
-1771
-1727
-1713
-1725
-1714
-1682
-1628
-1565
-1535
-1517
-1539
-1614
-1690
-1756
-1764
-1749
-1767
-1794
-1877
-1997
-2105
-2210
-2280
-2313
-2312
-2301
-2306
-2321
-2347
-2356
-2329
-2316
-2317
-2309
-2317
-2356
-2385
-2362
-2321
-2299
-2284
-2291
-2312
-2351
-2404
-2409
-2370
-2349
-2446
-2587
-2779
-2733
-2107
-1211
-203
832
1886
2477
2074
1239
304
-633
-1578
-2282
-2472
-2466
-2391
-2367
-2358
-2357
-2351
-2316
-2295
-2312
-2334
-2361
-2374
-2366
-2327
-2301
-2287
-2281
-2309
-2364
-2412
-2399
-2352
-2296
-2236
-2212
-2206
-2230
-2244
-2227
-2175
-2086
-1999
-1927
-1880
-1877
-1897
-1878
-1820
-1777
-1733
-1700
-1655
-1651
-1653
-1626
-1567
-1529
-1500
-1500
-1507
-1498
-1501
-1479
-1444
-1404
-1402
-1402
-1419
-1490
-1554
-1577
-1547
-1512
-1499
-1512
-1567
-1654
-1754
-1792
-1803
-1786
-1807
-1836
-1887
-1957
-2041
-2119
-2156
-2174
-2209
-2229
-2281
-2347
-2381
-2377
-2360
-2354
-2348
-2348
-2368
-2389
-2432
-2417
-2382
-2341
-2309
-2314
-2347
-2393
-2429
-2414
-2376
-2332
-2300
-2282
-2297
-2342
-2395
-2416
-2398
-2373
-2319
-2287
-2298
-2328
-2384
-2399
-2382
-2361
-2332
-2318
-2324
-2332
-2352
-2366
-2357
-2327
-2313
-2322
-2337
-2374
-2397
-2393
-2352
-2297
-2279
-2294
-2317
-2366
-2402
-2397
-2367
-2321
-2288
-2268
-2287
-2322
-2379
-2406
-2383
-2346
-2303
-2276
-2278
-2306
-2360
-2381
-2361
-2336
-2314
-2300
-2286
-2326
-2355
-2355
-2341
-2321
-2307
-2308
-2332
-2361
-2367
-2355
-2327
-2288
-2272
-2284
-2322
-2354
-2331
-2256
-2138
-2006
-1899
-1800
-1781
-1789
-1784
-1752
-1691
-1621
-1578
-1551
-1551
-1595
-1626
-1640
-1662
-1694
-1712
-1737
-1771
-1853
-1959
-2042
-2103
-2159
-2224
-2270
-2307
-2356
-2366
-2352
-2322
-2291
-2269
-2294
-2322
-2359
-2398
-2397
-2359
-2310
-2273
-2262
-2269
-2324
-2379
-2409
-2381
-2346
-2302
-2317
-2432
-2630
-2843
-2772
-2094
-1154
-153
872
1849
2399
2012
1234
346
-577
-1501
-2227
-2463
-2493
-2459
-2381
-2334
-2303
-2280
-2289
-2317
-2361
-2389
-2399
-2359
-2314
-2265
-2248
-2287
-2340
-2391
-2414
-2379
-2346
-2306
-2272
-2260
-2259
-2268
-2274
-2218
-2158
-2102
-2045
-2008
-1979
-1964
-1909
-1851
-1811
-1772
-1745
-1736
-1742
-1731
-1689
-1622
-1564
-1509
-1506
-1512
-1536
-1571
-1548
-1482
-1417
-1374
-1386
-1405
-1451
-1502
-1517
-1504
-1498
-1478
-1456
-1482
-1544
-1621
-1672
-1692
-1716
-1729
-1748
-1794
-1860
-1926
-1978
-2001
-2024
-2061
-2112
-2177
-2262
-2337
-2367
-2337
-2302
-2286
-2300
-2329
-2371
-2408
-2409
-2366
-2326
-2289
-2267
-2287
-2342
-2372
-2396
-2379
-2344
-2305
-2277
-2274
-2319
-2346
-2366
-2359
-2339
-2322
-2306
-2299
-2327
-2348
-2352
-2326
-2308
-2300
-2296
-2307
-2347
-2378
-2372
-2324
-2279
-2269
-2281
-2315
-2361
-2394
-2397
-2373
-2312
-2276
-2259
-2287
-2342
-2381
-2395
-2374
-2330
-2299
-2272
-2291
-2319
-2343
-2370
-2357
-2337
-2326
-2304
-2301
-2319
-2344
-2352
-2342
-2326
-2307
-2317
-2336
-2365
-2377
-2362
-2334
-2292
-2271
-2276
-2311
-2350
-2392
-2405
-2362
-2321
-2287
-2263
-2283
-2332
-2373
-2361
-2306
-2199
-2088
-1973
-1899
-1864
-1849
-1816
-1762
-1702
-1642
-1592
-1579
-1605
-1616
-1613
-1604
-1585
-1588
-1646
-1714
-1807
-1867
-1889
-1929
-1966
-2006
-2102
-2204
-2315
-2391
-2402
-2351
-2312
-2268
-2257
-2276
-2334
-2392
-2410
-2379
-2346
-2305
-2277
-2264
-2291
-2349
-2372
-2360
-2343
-2324
-2301
-2295
-2357
-2506
-2661
-2806
-2709
-2051
-1140
-178
780
1763
2370
2063
1305
419
-520
-1486
-2271
-2555
-2547
-2444
-2331
-2270
-2255
-2285
-2343
-2384
-2400
-2391
-2351
-2305
-2286
-2280
-2314
-2346
-2363
-2354
-2346
-2317
-2293
-2296
-2319
-2333
-2307
-2249
-2209
-2167
-2142
-2114
-2095
-2084
-2028
-1947
-1854
-1807
-1779
-1774
-1796
-1800
-1769
-1687
-1630
-1564
-1530
-1528
-1552
-1571
-1570
-1546
-1486
-1430
-1395
-1404
-1429
-1451
-1476
-1464
-1443
-1439
-1461
-1484
-1518
-1561
-1576
-1592
-1606
-1632
-1680
-1724
-1800
-1862
-1892
-1903
-1894
-1916
-1974
-2059
-2161
-2251
-2299
-2297
-2299
-2273
-2245
-2267
-2329
-2372
-2408
-2382
-2337
-2300
-2269
-2285
-2310
-2346
-2370
-2359
-2331
-2316
-2305
-2311
-2329
-2366
-2360
-2322
-2316
-2306
-2299
-2308
-2336
-2371
-2367
-2332
-2284
-2264
-2288
-2304
-2361
-2400
-2395
-2347
-2306
-2274
-2252
-2274
-2339
-2384
-2403
-2372
-2342
-2287
-2269
-2281
-2299
-2338
-2367
-2354
-2339
-2314
-2297
-2295
-2327
-2349
-2349
-2331
-2306
-2289
-2309
-2319
-2351
-2375
-2350
-2329
-2296
-2266
-2278
-2305
-2350
-2394
-2397
-2366
-2312
-2284
-2269
-2264
-2319
-2364
-2391
-2363
-2330
-2293
-2274
-2269
-2302
-2360
-2379
-2382
-2327
-2259
-2180
-2102
-2034
-1979
-1905
-1824
-1750
-1701
-1666
-1631
-1644
-1646
-1636
-1601
-1553
-1524
-1544
-1594
-1684
-1763
-1821
-1834
-1842
-1864
-1917
-2023
-2149
-2280
-2379
-2381
-2324
-2284
-2272
-2266
-2284
-2334
-2362
-2366
-2336
-2320
-2316
-2313
-2321
-2348
-2357
-2329
-2306
-2298
-2291
-2322
-2369
-2396
-2411
-2477
-2613
-2756
-2687
-2057
-1183
-251
753
1797
2432
2119
1344
408
-593
-1562
-2313
-2526
-2472
-2379
-2300
-2281
-2296
-2345
-2380
-2364
-2336
-2300
-2300
-2302
-2307
-2336
-2344
-2327
-2306
-2301
-2298
-2329
-2351
-2376
-2362
-2313
-2238
-2176
-2149
-2142
-2159
-2169
-2132
-2051
-1965
-1874
-1810
-1806
-1843
-1844
-1812
-1765
-1709
-1652
-1601
-1575
-1586
-1598
-1591
-1549
-1519
-1471
-1452
-1439
-1449
-1456
-1455
-1441
-1419
-1415
-1422
-1442
-1499
-1546
-1561
-1542
-1524
-1542
-1579
-1627
-1731
-1811
-1841
-1846
-1852
-1855
-1882
-1946
-2047
-2155
-2209
-2235
-2246
-2256
-2259
-2274
-2324
-2359
-2379
-2367
-2354
-2331
-2331
-2322
-2329
-2351
-2359
-2345
-2312
-2311
-2311
-2327
-2364
-2376
-2360
-2347
-2313
-2272
-2294
-2316
-2364
-2410
-2412
-2362
-2320
-2286
-2259
-2282
-2345
-2402
-2405
-2374
-2331
-2302
-2277
-2281
-2314
-2342
-2366
-2352
-2344
-2333
-2314
-2300
-2338
-2369
-2346
-2339
-2332
-2299
-2306
-2329
-2356
-2379
-2377
-2351
-2292
-2273
-2277
-2305
-2364
-2407
-2416
-2362
-2316
-2286
-2264
-2272
-2315
-2369
-2399
-2392
-2346
-2310
-2290
-2282
-2311
-2352
-2369
-2357
-2351
-2331
-2304
-2321
-2342
-2365
-2359
-2331
-2321
-2330
-2297
-2254
-2224
-2172
-2089
-1964
-1853
-1769
-1729
-1721
-1738
-1739
-1707
-1641
-1575
-1537
-1517
-1541
-1604
-1693
-1732
-1759
-1766
-1771
-1801
-1871
-1991
-2105
-2217
-2270
-2317
-2331
-2321
-2312
-2344
-2375
-2364
-2322
-2298
-2302
-2315
-2330
-2358
-2374
-2381
-2343
-2302
-2274
-2269
-2316
-2360
-2399
-2412
-2374
-2352
-2444
-2581
-2767
-2752
-2159
-1254
-251
798
1828
2449
2108
1264
326
-620
-1547
-2264
-2469
-2454
-2397
-2366
-2370
-2355
-2322
-2319
-2306
-2307
-2325
-2366
-2385
-2373
-2341
-2307
-2272
-2275
-2304
-2359
-2411
-2412
-2367
-2312
-2269
-2222
-2219
-2236
-2251
-2234
-2184
-2110
-2011
-1939
-1895
-1892
-1881
-1868
-1827
-1783
-1734
-1691
-1654
-1659
-1662
-1639
-1597
-1541
-1491
-1481
-1500
-1524
-1531
-1518
-1459
-1404
-1381
-1382
-1419
-1485
-1541
-1571
-1547
-1525
-1507
-1506
-1542
-1626
-1704
-1769
-1783
-1781
-1782
-1806
-1858
-1934
-2017
-2099
-2120
-2146
-2170
-2208
-2268
-2319
-2364
-2355
-2324
-2315
-2316
-2312
-2327
-2367
-2400
-2396
-2353
-2296
-2283
-2294
-2306
-2358
-2404
-2412
-2366
-2316
-2281
-2275
-2276
-2332
-2395
-2405
-2375
-2346
-2322
-2299
-2279
-2327
-2374
-2384
-2369
-2352
-2332
-2319
-2325
-2346
-2364
-2367
-2338
-2306
-2309
-2321
-2330
-2355
-2389
-2399
-2353
-2317
-2279
-2283
-2317
-2365
-2394
-2399
-2380
-2330
-2285
-2267
-2277
-2326
-2392
-2418
-2400
-2357
-2315
-2271
-2286
-2334
-2356
-2370
-2358
-2348
-2329
-2314
-2317
-2338
-2356
-2374
-2357
-2331
-2314
-2318
-2337
-2375
-2397
-2391
-2345
-2301
-2272
-2279
-2318
-2358
-2349
-2281
-2164
-2028
-1902
-1822
-1780
-1771
-1787
-1774
-1709
-1642
-1596
-1564
-1557
-1593
-1631
-1663
-1668
-1685
-1716
-1735
-1786
-1858
-1962
-2040
-2099
-2150
-2211
-2289
-2322
-2369
-2409
-2391
-2342
-2314
-2284
-2285
-2317
-2358
-2401
-2417
-2387
-2329
-2282
-2277
-2304
-2337
-2390
-2421
-2404
-2381
-2312
-2329
-2462
-2637
-2837
-2790
-2142
-1209
-185
807
1786
2372
2009
1240
381
-540
-1476
-2214
-2482
-2519
-2477
-2416
-2357
-2298
-2283
-2295
-2317
-2367
-2404
-2429
-2392
-2332
-2297
-2277
-2286
-2333
-2392
-2415
-2388
-2347
-2313
-2279
-2267
-2274
-2269
-2272
-2229
-2166
-2115
-2051
-2014
-2006
-1979
-1935
-1866
-1809
-1765
-1757
-1756
-1756
-1746
-1707
-1652
-1588
-1526
-1496
-1492
-1535
-1562
-1548
-1516
-1439
-1408
-1391
-1391
-1444
-1507
-1511
-1507
-1499
-1484
-1477
-1482
-1551
-1617
-1667
-1696
-1711
-1732
-1744
-1774
-1865
-1935
-1981
-1982
-2015
-2074
-2111
-2175
-2272
-2340
-2364
-2340
-2295
-2273
-2290
-2316
-2368
-2414
-2417
-2371
-2332
-2301
-2264
-2281
-2320
-2383
-2406
-2387
-2347
-2306
-2284
-2290
-2326
-2348
-2370
-2361
-2353
-2339
-2322
-2330
-2346
-2364
-2356
-2347
-2332
-2304
-2314
-2316
-2352
-2391
-2393
-2337
-2296
-2284
-2289
-2314
-2363
-2403
-2417
-2379
-2334
-2301
-2276
-2296
-2328
-2380
-2401
-2382
-2350
-2304
-2281
-2287
-2322
-2357
-2381
-2372
-2352
-2345
-2329
-2322
-2344
-2369
-2377
-2346
-2322
-2309
-2320
-2344
-2377
-2396
-2394
-2356
-2307
-2286
-2295
-2324
-2373
-2420
-2434
-2389
-2320
-2281
-2270
-2274
-2340
-2392
-2394
-2327
-2210
-2090
-2013
-1922
-1864
-1851
-1830
-1777
-1707
-1648
-1594
-1591
-1619
-1652
-1646
-1609
-1589
-1614
-1659
-1726
-1805
-1875
-1915
-1942
-1984
-2039
-2108
-2207
-2319
-2393
-2414
-2379
-2324
-2293
-2281
-2291
-2337
-2402
-2431
-2392
-2349
-2320
-2308
-2299
-2323
-2359
-2381
-2382
-2359
-2339
-2331
-2327
-2384
-2511
-2671
-2819
-2731
-2081
-1168
-205
738
1699
2340
2071
1332
478
-468
-1456
-2265
-2557
-2562
-2477
-2367
-2289
-2267
-2284
-2339
-2393
-2404
-2390
-2361
-2329
-2299
-2290
-2314
-2365
-2390
-2361
-2347
-2332
-2322
-2321
-2341
-2355
-2326
-2244
-2211
-2180
-2153
-2117
-2117
-2104
-2043
-1960
-1892
-1815
-1772
-1766
-1792
-1819
-1799
-1741
-1661
-1594
-1536
-1508
-1553
-1597
-1597
-1552
-1514
-1469
-1421
-1402
-1431
-1487
-1509
-1493
-1478
-1464
-1471
-1486
-1540
-1593
-1619
-1615
-1630
-1656
-1687
-1730
-1806
-1882
-1927
-1924
-1924
-1951
-1995
-2070
-2174
-2269
-2312
-2322
-2316
-2290
-2280
-2281
-2337
-2400
-2415
-2394
-2364
-2330
-2301
-2294
-2328
-2357
-2380
-2368
-2354
-2346
-2335
-2324
-2342
-2374
-2383
-2356
-2336
-2321
-2315
-2332
-2391
-2401
-2387
-2357
-2324
-2284
-2279
-2305
-2363
-2422
-2426
-2377
-2329
-2292
-2285
-2282
-2334
-2394
-2422
-2393
-2358
-2324
-2293
-2285
-2332
-2377
-2386
-2362
-2348
-2341
-2327
-2332
-2350
-2386
-2381
-2352
-2337
-2325
-2316
-2333
-2389
-2404
-2396
-2356
-2320
-2307
-2284
-2306
-2363
-2402
-2422
-2391
-2342
-2301
-2287
-2287
-2332
-2387
-2412
-2401
-2374
-2339
-2296
-2295
-2335
-2385
-2398
-2371
-2342
-2276
-2196
-2120
-2080
-2021
-1932
-1841
-1769
-1712
-1674
-1651
-1674
-1688
-1671
-1634
-1584
-1560
-1564
-1624
-1721
-1806
-1857
-1865
-1868
-1886
-1964
-2042
-2167
-2310
-2394
-2390
-2369
-2336
-2314
-2311
-2340
-2374
-2393
-2371
-2351
-2334
-2329
-2327
-2352
-2392
-2390
-2348
-2307
-2302
-2302
-2329
-2367
-2387
-2424
-2513
-2635
-2781
-2705
-2090
-1243
-322
683
1724
2403
2118
1331
436
-526
-1549
-2333
-2557
-2526
-2419
-2329
-2292
-2321
-2366
-2382
-2373
-2349
-2321
-2324
-2321
-2349
-2381
-2371
-2359
-2337
-2322
-2316
-2342
-2399
-2418
-2407
-2346
-2282
-2206
-2178
-2171
-2206
-2216
-2186
-2095
-1992
-1921
-1851
-1833
-1849
-1848
-1849
-1814
-1751
-1686
-1643
-1611
-1613
-1623
-1599
-1573
-1532
-1498
-1474
-1469
-1479
-1490
-1494
-1467
-1431
-1417
-1432
-1474
-1551
-1595
-1588
-1584
-1561
-1550
-1597
-1667
-1760
-1829
-1865
-1886
-1870
-1876
-1902
-1946
-2050
-2149
-2221
-2253
-2264
-2282
-2290
-2297
-2329
-2366
-2379
-2369
-2352
-2345
-2322
-2318
-2349
-2371
-2389
-2362
-2324
-2320
-2319
-2351
-2384
-2422
-2411
-2370
-2329
-2296
-2295
-2322
-2372
-2422
-2436
-2399
-2329
-2277
-2262
-2286
-2333
-2372
-2420
-2424
-2375
-2332
-2314
-2311
-2330
-2379
-2389
-2369
-2354
-2339
-2326
-2338
-2336
-2369
-2381
-2346
-2333
-2312
-2319
-2339
-2376
-2411
-2414
-2366
-2319
-2303
-2293
-2304
-2377
-2427
-2437
-2394
-2339
-2299
-2277
-2304
-2345
-2386
-2397
-2391
-2366
-2339
-2297
-2304
-2326
-2367
-2397
-2379
-2341
-2342
-2339
-2341
-2361
-2378
-2375
-2356
-2324
-2295
-2294
-2284
-2240
-2204
-2115
-1973
-1861
-1789
-1727
-1724
-1737
-1742
-1719
-1662
-1611
-1570
-1557
-1552
-1598
-1682
-1757
-1795
-1787
-1792
-1837
-1907
-2008
-2127
-2227
-2276
-2321
-2328
-2331
-2339
-2346
-2369
-2386
-2352
-2332
-2321
-2316
-2337
-2394
-2414
-2403
-2358
-2319
-2286
-2303
-2324
-2369
-2413
-2417
-2389
-2372
-2470
-2606
-2777
-2762
-2172
-1304
-318
727
1763
2402
2088
1276
350
-588
-1520
-2257
-2494
-2492
-2416
-2385
-2378
-2381
-2359
-2324
-2314
-2334
-2346
-2371
-2405
-2416
-2380
-2339
-2296
-2299
-2328
-2377
-2409
-2416
-2396
-2341
-2276
-2235
-2220
-2231
-2245
-2246
-2182
-2128
-2047
-1962
-1916
-1902
-1894
-1877
-1841
-1791
-1737
-1701
-1689
-1684
-1683
-1654
-1592
-1530
-1503
-1487
-1506
-1529
-1540
-1511
-1462
-1421
-1409
-1404
-1428
-1485
-1539
-1567
-1553
-1532
-1506
-1521
-1564
-1641
-1717
-1785
-1797
-1807
-1804
-1823
-1866
-1933
-2016
-2087
-2122
-2156
-2190
-2228
-2283
-2330
-2362
-2379
-2346
-2329
-2314
-2314
-2346
-2383
-2415
-2416
-2376
-2325
-2302
-2297
-2324
-2384
-2427
-2426
-2396
-2352
-2305
-2274
-2296
-2347
-2404
-2418
-2401
-2373
-2346
-2316
-2301
-2332
-2374
-2396
-2369
-2354
-2336
-2333
-2334
-2362
-2384
-2378
-2357
-2319
-2304
-2314
-2351
-2395
-2414
-2397
-2366
-2335
-2311
-2295
-2297
-2362
-2414
-2444
-2406
-2342
-2309
-2291
-2301
-2330
-2378
-2409
-2396
-2372
-2341
-2318
-2309
-2336
-2379
-2410
-2377
-2365
-2345
-2334
-2343
-2374
-2395
-2383
-2369
-2335
-2309
-2317
-2336
-2370
-2407
-2404
-2369
-2328
-2292
-2297
-2320
-2356
-2345
-2307
-2186
-2039
-1931
-1836
-1797
-1792
-1796
-1776
-1727
-1659
-1601
-1572
-1576
-1617
-1664
-1679
-1687
-1699
-1724
-1750
-1808
-1901
-1987
-2068
-2122
-2174
-2247
-2319
-2372
-2421
-2455
-2459
-2421
-2368
-2335
-2329
-2359
-2426
-2480
-2487
-2442
-2396
-2346
-2334
-2324
-2351
-2410
-2433
-2394
-2352
-2322
-2322
-2447
-2622
-2811
-2779
-2131
-1200
-211
789
1782
2381
2064
1297
436
-466
-1387
-2156
-2432
-2478
-2446
-2373
-2324
-2259
-2238
-2226
-2259
-2305
-2354
-2353
-2318
-2277
-2239
-2221
-2222
-2266
-2311
-2346
-2343
-2293
-2260
-2228
-2209
-2217
-2219
-2205
-2169
-2105
-2066
-1999
-1952
-1942
-1916
-1859
-1811
-1759
-1711
-1689
-1671
-1681
-1684
-1664
-1591
-1502
-1452
-1429
-1434
-1471
-1504
-1490
-1457
-1377
-1337
-1324
-1337
-1383
-1429
-1442
-1439
-1441
-1421
-1416
-1444
-1492
-1563
-1627
-1629
-1639
-1677
-1710
-1764
-1822
-1872
-1917
-1943
-1958
-1997
-2057
-2127
-2216
-2292
-2319
-2297
-2257
-2232
-2218
-2246
-2301
-2356
-2355
-2334
-2280
-2246
-2225
-2234
-2274
-2317
-2341
-2352
-2315
-2289
-2255
-2259
-2279
-2320
-2324
-2316
-2299
-2282
-2281
-2286
-2321
-2328
-2319
-2306
-2279
-2259
-2272
-2284
-2331
-2368
-2370
-2329
-2269
-2239
-2241
-2267
-2331
-2391
-2386
-2348
-2311
-2266
-2239
-2235
-2297
-2354
-2376
-2367
-2332
-2284
-2272
-2276
-2293
-2337
-2333
-2335
-2315
-2304
-2310
-2305
-2311
-2350
-2337
-2296
-2272
-2279
-2284
-2307
-2348
-2377
-2361
-2312
-2266
-2240
-2253
-2282
-2339
-2389
-2397
-2366
-2305
-2256
-2253
-2264
-2295
-2357
-2371
-2305
-2194
-2093
-1985
-1896
-1862
-1833
-1797
-1768
-1703
-1623
-1574
-1581
-1612
-1642
-1629
-1586
-1557
-1582
-1633
-1687
-1780
-1849
-1886
-1922
-1969
-2011
-2089
-2194
-2308
-2377
-2387
-2368
-2327
-2269
-2251
-2267
-2294
-2342
-2371
-2359
-2329
-2301
-2272
-2270
-2282
-2326
-2337
-2312
-2294
-2281
-2281
-2288
-2342
-2494
-2634
-2773
-2706
-2069
-1167
-217
726
1693
2371
2126
1410
528
-406
-1382
-2196
-2497
-2514
-2434
-2316
-2266
-2222
-2234
-2279
-2331
-2360
-2347
-2313
-2297
-2259
-2250
-2284
-2322
-2344
-2329
-2294
-2282
-2284
-2288
-2297
-2314
-2292
-2228
-2152
-2119
-2096
-2071
-2080
-2083
-2020
-1927
-1829
-1761
-1729
-1744
-1754
-1759
-1747
-1697
-1621
-1564