
-3889
-3696
-3492
-3286
-3106
-2962
-2855
-2797
-2788
-2759
-2706
-2638
-2577
-2516
-2479
-2494
-2499
-2492
-2470
-2440
-2417
-2385
-2388
-2412
-2430
-2437
-2410
-2372
-2355
-2341
-2359
-2388
-2434
-2454
-2414
-2371
-2321
-2304
-2311
-2361
-2408
-2452
-2437
-2397
-2347
-2309
-2299
-2339
-2382
-2402
-2402
-2373
-2356
-2337
-2318
-2339
-2378
-2406
-2387
-2373
-2351
-2331
-2309
-2301
-2278
-2197
-2087
-1981
-1882
-1821
-1788
-1777
-1777
-1749
-1672
-1603
-1572
-1547
-1551
-1609
-1671
-1719
-1747
-1751
-1746
-1763
-1796
-1874
-2004
-2119
-2201
-2257
-2309
-2314
-2297
-2316
-2363
-2364
-2356
-2337
-2328
-2318
-2327
-2368
-2393
-2384
-2361
-2322
-2292
-2298
-2299
-2339
-2386
-2411
-2398
-2460
-2569
-2707
-2761
-2287
-1467
-514
503
1539
2375
2275
1554
643
-351
-1342
-2160
-2466
-2486
-2407
-2340
-2329
-2344
-2360
-2344
-2331
-2316
-2316
-2319
-2331
-2364
-2376
-2349
-2314
-2286
-2292
-2277
-2304
-2318
-2306
-2237
-2159
-2087
-2029
-1992
-1981
-1984
-1979
-1936
-1857
-1784
-1725
-1687
-1669
-1686
-1705
-1676
-1636
-1567
-1525
-1500
-1491
-1504
-1497
-1472
-1435
-1402
-1412
-1423
-1458
-1486
-1486
-1469
-1441
-1445
-1469
-1499
-1572
-1648
-1687
-1693
-1681
-1681
-1688
-1736
-1830
-1921
-1997
-2029
-2039
-2046
-2061
-2091
-2164
-2258
-2343
-2359
-2342
-2314
-2291
-2282
-2301
-2337
-2349
-2335
-2332
-2321
-2311
-2317
-2332
-2361
-2374
-2337
-2307
-2282
-2281
-2289
-2339
-2376
-2397
-2374
-2329
-2282
-2252
-2266
-2300
-2357
-2394
-2389
-2352
-2299
-2262
-2257
-2283
-2333
-2375
-2372
-2339
-2319
-2309
-2283
-2295
-2317
-2343
-2341
-2316
-2308
-2319
-2312
-2328
-2352
-2366
-2333
-2300
-2288
-2291
-2306
-2332
-2377
-2392
-2365
-2322
-2270
-2205
-2144
-2117
-2094
-2044
-1967
-1870
-1780
-1686
-1634
-1611
-1616
-1631
-1631
-1612
-1579
-1559
-1554
-1574
-1651
-1710
-1741
-1760
-1797
-1861
-1944
-2036
-2140
-2206
-2259
-2267
-2257
-2266
-2289
-2324
-2386
-2392
-2344
-2307
-2257
-2237
-2258
-2292
-2351
-2391
-2372
-2346
-2306
-2274
-2257
-2274
-2336
-2441
-2582
-2729
-2826
-2457
-1642
-702
261
1253
2192
2386
1777
903
-29
-1001
-1919
-2426
-2479
-2401
-2299
-2264
-2276
-2333
-2372
-2383
-2344
-2294
-2249
-2244
-2256
-2299
-2348
-2390
-2386
-2339
-2276
-2219
-2180
-2184
-2193
-2193
-2149
-2097
-2034
-1966
-1906
-1880
-1864
-1844
-1804
-1769
-1704
-1661
-1653
-1649
-1664
-1657
-1594
-1511
-1475
-1459
-1454
-1477
-1509
-1512
-1464
-1411
-1365
-1355
-1353
-1396
-1464
-1516
-1524
-1502
-1471
-1478
-1499
-1561
-1632
-1702
-1741
-1751
-1754
-1792
-1826
-1884
-1968
-2022
-2043
-2073
-2124
-2161
-2210
-2275
-2339
-2348
-2312
-2291
-2254
-2246
-2269
-2316
-2376
-2385
-2351
-2307
-2260
-2242
-2233
-2284
-2335
-2367
-2365
-2328
-2286
-2246
-2243
-2271
-2310
-2351
-2352
-2326
-2306
-2280
-2265
-2296
-2315
-2322
-2317
-2304
-2279
-2285
-2284
-2316
-2336
-2339
-2322
-2294
-2274
-2262
-2273
-2299
-2352
-2369
-2340
-2301
-2264
-2242
-2239
-2276
-2344
-2373
-2367
-2326
-2294
-2257
-2246
-2277
-2312
-2341
-2332
-2302
-2218
-2129
-2051
-1983
-1914
-1869
-1802
-1742
-1682
-1641
-1591
-1606
-1613
-1617
-1592
-1549
-1518
-1521
-1579
-1650
-1754
-1823
-1828
-1839
-1861
-1916
-1994
-2124
-2255
-2339
-2353
-2325
-2279
-2246
-2232
-2257
-2302
-2347
-2348
-2338
-2309
-2287
-2278
-2287
-2310
-2330
-2309
-2299
-2298
-2286
-2296
-2372
-2534
-2694
-2812
-2617
-1859
-922
39
986
1928
2352
1929
1161
287
-621
-1566
-2254
-2479
-2490
-2427
-2339
-2297
-2251
-2238
-2257
-2300
-2342
-2347
-2326
-2299
-2283
-2274
-2287
-2307
-2318
-2301
-2266
-2214
-2183
-2164
-2166
-2164
-2129
-2059
-1969
-1899
-1843
-1815
-1830
-1844
-1841
-1779
-1689
-1623
-1581
-1555
-1565
-1604
-1611
-1577
-1521
-1456
-1408
-1375
-1379
-1419
-1449
-1451
-1442
-1414
-1389
-1381
-1403
-1452
-1490
-1502
-1512
-1510
-1525
-1577
-1659
-1710
-1746
-1753
-1764
-1777
-1821
-1877
-1962
-2057
-2117
-2147
-2161
-2161
-2189
-2223
-2258
-2316
-2366
-2366
-2317
-2290
-2245
-2237
-2255
-2309
-2344
-2336
-2326
-2293
-2274
-2256
-2264
-2297
-2322
-2315
-2297
-2271
-2269
-2279
-2313
-2346
-2352
-2311
-2253
-2230
-2229
-2249
-2299
-2342
-2360
-2342
-2279
-2237
-2211
-2226
-2277
-2334
-2361
-2359
-2327
-2269
-2234
-2229
-2247
-2292
-2331
-2325
-2321
-2283
-2267
-2256
-2265
-2298
-2328
-2305
-2287
-2270
-2261
-2276
-2300
-2334
-2327
-2251
-2135
-2032
-1950
-1884
-1849
-1844
-1816
-1736
-1653
-1567
-1497
-1506
-1541
-1602
-1624
-1609
-1578
-1563
-1567
-1597
-1679
-1779
-1862
-1916
-1969
-2033
-2097
-2167
-2231
-2282
-2309
-2301
-2295
-2284
-2285
-2284
-2311
-2336
-2340
-2302
-2266
-2246
-2249
-2247
-2296
-2343
-2380
-2351
-2291
-2242
-2254
-2361
-2563
-2793
-2802
-2211
-1272
-259
778
1770
2425
2145
1369
495
-421
-1329
-2112
-2402
-2416
-2389
-2335
-2304
-2291
-2275
-2270
-2282
-2321
-2336
-2342
-2314
-2285
-2246
-2221
-2246
-2298
-2334
-2336
-2286
-2194
-2125
-2072
-2046
-2062
-2082
-2064
-2016
-1933
-1856
-1781
-1732
-1725
-1740
-1734
-1711
-1661
-1622
-1562
-1538
-1521
-1531
-1529
-1495
-1446
-1414
-1391
-1394
-1426
-1462
-1455
-1417
-1374
-1351
-1363
-1395
-1477
-1545
-1590
-1578
-1554
-1536
-1543
-1581
-1661
-1752
-1831
-1875
-1887
-1891
-1902
-1946
-1992
-2085
-2168
-2222
-2246
-2262
-2270
-2272
-2284
-2292
-2317
-2306
-2275
-2262
-2259
-2272
-2309
-2336
-2337
-2316
-2274
-2247
-2247
-2255
-2282
-2332
-2366
-2346
-2287
-2250
-2215
-2222
-2269
-2311
-2342
-2351
-2315
-2267
-2234
-2231
-2255
-2295
-2328
-2328
-2319
-2304
-2272
-2275
-2286
-2307
-2321
-2319
-2275
-2259
-2257
-2254
-2299
-2339
-2341
-2306
-2259
-2227
-2231
-2247
-2299
-2359
-2380
-2347
-2296
-2243
-2223
-2230
-2250
-2269
-2254
-2162
-2062
-1932
-1821
-1744
-1727
-1711
-1702
-1666
-1609
-1563
-1536
-1521
-1544
-1566
-1579
-1579
-1589
-1630
-1669
-1721
-1794
-1899
-1984
-2022
-2044
-2105
-2189
-2231
-2272
-2337
-2377
-2349
-2295
-2242
-2232
-2229
-2260
-2319
-2355
-2357
-2314
-2268
-2241
-2234
-2264
-2296
-2324
-2326
-2315
-2373
-2517
-2679
-2778
-2385
-1549
-567
466
1476
2341
2349
1639
741
-179
-1077
-1927
-2332
-2376
-2359
-2339
-2367
-2376
-2342
-2289
-2246
-2217
-2216
-2251
-2307
-2354
-2347
-2312
-2282
-2232
-2212
-2222
-2251
-2264
-2216
-2175
-2141
-2080
-2027
-1994
-1972
-1944
-1892
-1827
-1768
-1741
-1710
-1714
-1717
-1696
-1636
-1565
-1508
-1489
-1474
-1492
-1537
-1549
-1498
-1433
-1372
-1319
-1337
-1374
-1422
-1468
-1455
-1429
-1421
-1404
-1406
-1450
-1506
-1566
-1609
-1625
-1644
-1667
-1689
-1738
-1814
-1857
-1880
-1916
-1958
-1989
-2042
-2133
-2212
-2259
-2302
-2276
-2242
-2219
-2246
-2288
-2342
-2376
-2339
-2286
-2247
-2228
-2210
-2245
-2319
-2361
-2358
-2328
-2286
-2247
-2231
-2260
-2290
-2321
-2319
-2297
-2269
-2255
-2261
-2271
-2298
-2306
-2298
-2258
-2249
-2252
-2279
-2307
-2341
-2351
-2325
-2263
-2236
-2228
-2250
-2290
-2343
-2359
-2324
-2285
-2259
-2244
-2224
-2262
-2322
-2364
-2348
-2314
-2293
-2234
-2227
-2244
-2287
-2330
-2320
-2302
-2281
-2257
-2222
-2189
-2137
-2072
-1976
-1880
-1792
-1730
-1701
-1697
-1677
-1626
-1576
-1524
-1499
-1472
-1514
-1559
-1629
-1683
-1699
-1685
-1684
-1704
-1755
-1867
-2019
-2122
-2190
-2234
-2262
-2244
-2241
-2250
-2286
-2311
-2314
-2298
-2287
-2276
-2268
-2282
-2307
-2324
-2299
-2269
-2254
-2249
-2269
-2286
-2338
-2341
-2368
-2455
-2602
-2736
-2504
-1770
-891
56
1082
2112
2494
1976
1124
186
-807
-1772
-2373
-2470
-2395
-2300
-2246
-2242
-2299
-2326
-2309
-2297
-2280
-2261
-2253
-2261
-2289
-2320
-2304
-2286
-2272
-2251
-2231
-2246
-2246
-2214
-2151
-2080
-2004
-1955
-1927
-1936
-1952
-1917
-1841
-1771
-1696
-1636
-1607
-1617
-1653
-1657
-1642
-1575
-1501
-1462
-1424
-1429
-1452
-1461
-1434
-1415
-1389
-1377
-1381
-1394
-1412
-1426
-1434
-1425
-1434
-1454
-1479
-1536
-1612
-1645
-1644
-1626
-1637
-1679
-1712
-1810
-1933
-1996
-2012
-2015
-2014
-2022
-2076
-2159
-2259
-2332
-2344
-2301
-2274
-2256
-2221
-2244
-2281
-2309
-2322
-2304
-2281
-2268
-2272
-2286
-2323
-2327
-2300
-2267
-2253
-2257
-2281
-2294
-2329
-2339
-2305
-2266
-2231
-2218
-2226
-2266
-2324
-2363
-2351
-2294
-2236
-2205
-2216
-2261
-2313
-2349
-2354
-2307
-2271
-2229
-2226
-2244
-2282
-2325
-2316
-2296
-2296
-2269
-2269
-2277
-2297
-2296
-2290
-2256
-2251
-2237
-2259
-2294
-2331
-2319
-2292
-2262
-2226
-2141
-2079
-2055
-2045
-1979
-1893
-1784
-1687
-1597
-1573
-1575
-1591
-1605
-1585
-1566
-1542
-1517
-1513
-1553
-1624
-1700
-1749
-1767
-1805
-1861
-1939
-2035
-2130
-2216
-2250
-2247
-2239
-2226
-2242
-2301
-2337
-2341
-2311
-2275
-2215
-2206
-2235
-2280
-2332
-2357
-2341
-2289
-2253
-2221
-2216
-2249
-2347
-2511
-2657
-2795
-2687
-2006
-1076
-126
842
1819
2413
2104
1330
441
-488
-1446
-2206
-2452
-2440
-2351
-2272
-2246
-2259
-2292
-2332
-2332
-2309
-2267
-2232
-2212
-2221
-2261
-2329
-2359
-2331
-2283
-2218
-2162
-2141
-2142
-2154
-2148
-2104
-2054
-1972
-1882
-1830
-1802
-1813
-1802
-1777
-1730
-1672
-1629
-1612
-1604
-1601
-1569
-1522
-1477
-1432
-1427
-1428
-1436
-1454
-1447
-1419
-1377
-1322
-1309
-1336
-1399
-1469
-1517
-1513
-1484
-1462
-1457
-1476
-1543
-1649
-1724
-1729
-1734
-1754
-1780
-1801
-1861
-1940
-2012
-2039
-2084
-2127
-2158
-2206
-2260
-2291
-2302
-2300
-2266
-2241
-2241
-2257
-2291
-2325
-2343
-2312
-2254
-2226
-2215
-2231
-2272
-2336
-2362
-2340
-2285
-2256
-2207
-2199
-2239
-2304
-2333
-2333
-2318
-2281
-2251
-2233
-2243
-2279
-2318
-2306
-2293
-2277
-2252
-2254
-2274
-2311
-2316
-2289
-2251
-2234
-2226
-2252
-2279
-2327
-2338
-2314
-2271
-2231
-2202
-2215
-2267
-2329
-2359
-2359
-2312
-2259
-2210
-2204
-2230
-2292
-2331
-2339
-2268
-2156
-2047
-1959
-1899
-1862
-1824
-1763
-1699
-1643
-1584
-1544
-1549
-1579
-1574
-1550
-1506
-1511
-1538
-1586
-1664
-1749
-1794
-1817
-1832
-1869
-1922
-2019
-2135
-2261
-2339
-2335
-2286
-2244
-2212
-2202
-2226
-2297
-2326
-2334
-2311
-2283
-2265
-2244
-2256
-2291
-2302
-2306
-2276
-2266
-2234
-2266
-2392
-2576
-2751
-2779
-2244
-1357
-391
576
1538
2307
2211
1549
721
-152
-1102
-1967
-2374
-2459
-2450
-2382
-2306
-2251
-2209
-2209
-2226
-2282
-2322
-2342
-2314
-2281
-2237
-2207
-2242
-2291
-2317
-2274
-2218
-2182
-2145
-2116
-2100
-2112
-2083
-2007
-1927
-1846
-1797
-1784
-1794
-1807
-1779
-1721
-1633
-1576
-1528
-1518
-1564
-1582
-1564
-1538
-1466
-1409
-1348
-1331
-1357
-1400
-1430
-1419
-1399
-1379
-1351
-1344
-1372
-1440
-1483
-1496
-1512
-1527
-1549
-1592
-1645
-1701
-1736
-1751
-1754
-1786
-1831
-1894
-1974
-2065
-2137
-2149
-2141
-2159
-2181
-2208
-2269
-2319
-2346
-2336
-2291
-2228
-2207
-2203
-2216
-2279
-2342
-2329
-2299
-2271
-2233
-2235
-2247
-2276
-2297
-2297
-2279
-2271
-2263
-2266
-2271
-2294
-2307
-2279
-2254
-2226
-2233
-2254
-2282
-2310
-2334
-2321
-2267
-2234
-2202
-2215
-2250
-2312
-2346
-2322
-2292
-2254
-2210
-2200
-2227
-2287
-2322
-2321
-2299
-2257
-2234
-2236
-2233
-2274
-2299
-2297
-2284
-2259
-2245
-2256
-2266
-2299
-2278
-2186
-2076
-1983
-1904
-1839
-1824
-1809
-1764
-1697
-1587
-1511
-1466
-1476
-1524
-1576
-1607
-1603
-1574
-1564
-1560
-1588
-1679
-1779
-1876
-1951
-2004
-2052
-2102
-2147
-2204
-2259
-2289
-2294
-2275
-2259
-2228
-2241
-2274
-2307
-2310
-2293
-2248
-2220
-2226
-2242
-2276
-2321
-2328
-2302
-2265
-2237
-2278
-2426
-2646
-2821
-2538
-1717
-728
294
1326
2268
2429
1792
918
1
-919
-1807
-2306
-2379
-2354
-2333
-2320
-2299
-2271
-2279
-2259
-2267
-2270
-2287
-2309
-2288
-2259
-2231
-2229
-2251
-2279
-2320
-2291
-2222
-2157
-2091
-2048
-2021
-2014
-2034
-2012
-1946
-1872
-1786
-1716
-1676
-1671
-1711
-1716
-1689
-1624
-1567
-1523
-1474
-1467
-1472
-1473
-1467
-1434
-1389
-1382
-1364
-1374
-1406
-1412
-1393
-1346
-1337
-1348
-1391
-1462
-1531
-1562
-1561
-1537
-1535
-1557
-1590
-1664
-1766
-1846
-1873
-1870
-1872
-1897
-1944
-2002
-2096
-2195
-2250
-2266
-2251
-2227
-2216
-2225
-2272
-2299
-2297
-2267
-2254
-2251
-2244
-2273
-2303
-2311
-2288
-2245
-2229
-2229
-2234
-2281
-2327
-2333
-2315
-2264
-2234
-2199
-2209
-2258
-2317
-2352
-2336
-2287
-2239
-2221
-2199
-2234
-2299
-2342
-2315
-2297
-2276
-2244
-2229
-2239
-2275
-2294
-2300
-2273
-2251
-2244
-2252
-2281
-2309
-2307
-2287
-2252
-2237
-2238
-2249
-2275
-2325
-2341
-2310
-2264
-2214
-2187
-2208
-2229
-2227
-2185
-2101
-1991
-1865
-1737
-1683
-1674
-1677
-1674
-1633
-1584
-1539
-1516
-1502
-1508
-1549
-1571
-1607
-1617
-1631
-1673
-1731
-1817
-1919
-1982
-2031
-2097
-2152
-2195
-2222
-2269
-2331
-2348
-2312
-2263
-2222
-2200
-2212
-2250
-2306
-2339
-2337
-2289
-2246
-2216
-2211
-2226
-2286
-2321
-2316
-2341
-2440
-2579
-2716
-2593
-1934
-1024
-26
984
2001
2507
2056
1210
281
-658
-1568
-2211
-2396
-2372
-2317
-2289
-2314
-2335
-2310
-2261
-2219
-2202
-2209
-2251
-2310
-2354
-2353
-2308
-2253
-2204
-2184
-2195
-2213
-2217
-2186
-2136
-2088
-2018
-1954
-1942
-1927
-1887
-1849
-1786
-1746
-1710
-1674
-1659
-1677
-1649
-1591
-1528
-1482
-1458
-1454
-1477
-1499
-1499
-1449
-1376
-1322
-1313
-1319
-1346
-1398
-1449
-1434
-1416
-1395
-1380
-1387
-1427
-1491
-1568
-1609
-1635
-1641
-1647
-1671
-1717
-1789
-1849
-1897
-1941
-1961
-2017
-2070
-2132
-2203
-2257
-2268
-2239
-2229
-2212
-2230
-2269
-2322
-2341
-2304
-2262
-2212
-2207
-2202
-2245
-2297
-2339
-2329
-2289
-2243
-2217
-2201
-2220
-2273
-2312
-2331
-2294
-2279
-2240
-2217
-2230
-2266
-2282
-2266
-2264
-2246
-2254
-2251
-2281
-2304
-2306
-2279
-2244
-2230
-2226
-2228
-2279
-2321
-2336
-2307
-2259
-2232
-2202
-2211
-2256
-2310
-2333
-2329
-2297
-2257
-2220
-2196
-2234
-2274
-2316
-2311
-2284
-2268
-2243
-2166
-2104
-2062
-2026
-1939
-1825
-1754
-1713
-1651
-1640
-1631
-1601
-1554
-1504
-1482
-1481
-1506
-1548
-1606
-1666
-1692
-1675
-1671
-1715
-1785
-1902
-2044
-2155
-2222
-2241
-2239
-2207
-2200
-2231
-2274
-2315
-2326
-2302
-2262
-2229
-2231
-2223
-2259
-2294
-2301
-2279
-2250
-2236
-2241
-2269
-2298
-2345
-2417
-2530
-2662
-2674
-2135
-1289
-360
619
1638
2459
2301
1579
668
-311
-1321
-2172
-2471
-2444
-2336
-2243
-2206
-2229
-2278
-2311
-2309
-2296
-2259
-2237
-2223
-2242
-2269
-2294
-2284
-2271
-2241
-2211
-2192
-2184
-2189
-2161
-2096
-2015
-1959
-1921
-1899
-1907
-1910
-1875
-1799
-1714
-1662
-1607
-1588
-1606
-1630
-1639
-1604
-1529
-1459
-1423
-1401
-1386
-1408
-1440
-1414
-1402
-1383
-1351
-1348
-1364
-1385
-1399
-1409
-1425
-1429
-1442
-1481
-1531
-1583
-1631
-1636
-1642
-1631
-1671
-1741
-1832
-1919
-1987
-2009
-2011
-2004
-2026
-2093
-2176
-2282
-2334
-2330
-2284
-2247
-2217
-2211
-2233
-2276
-2314
-2323
-2292
-2262
-2241
-2238
-2222
-2264
-2293
-2276
-2248
-2230
-2243
-2252
-2272
-2294
-2307
-2294
-2256
-2221
-2222
-2227
-2271
-2316
-2339
-2302
-2263
-2235
-2206
-2186
-2226
-2284
-2327
-2320
-2284
-2243
-2202
-2199
-2222
-2279
-2311
-2298
-2294
-2271
-2258
-2243
-2254
-2294
-2292
-2265
-2258
-2238
-2242
-2249
-2274
-2307
-2315
-2291
-2238
-2167
-2101
-2046
-2008
-1978
-1922
-1836
-1730
-1643
-1581
-1542
-1544
-1577
-1619
-1601
-1553
-1516
-1494
-1501
-1548
-1637
-1717
-1758
-1803
-1831
-1876
-1944
-2026
-2139
-2224
-2251
-2242
-2236
-2236
-2244
-2276
-2308
-2319
-2289
-2239
-2204
-2197
-2227
-2267
-2312
-2327
-2310
-2266
-2226
-2211
-2201
-2247
-2390
-2592
-2746
-2793
-2356
-1496
-521
429
1390
2245
2319
1713
870
-41
-979
-1882
-2381
-2466
-2406
-2318
-2248
-2242
-2251
-2281
-2310
-2311
-2287
-2256
-2224
-2218
-2241
-2279
-2326
-2349
-2314
-2254
-2185
-2116
-2094
-2112
-2140
-2149
-2096
-2009
-1927
-1847
-1784
-1775
-1774
-1782
-1755
-1706
-1646
-1601
-1569
-1565
-1566
-1548
-1511
-1457
-1414
-1399
-1399
-1409
-1434
-1431
-1379
-1349
-1322
-1310
-1324
-1372
-1465
-1513
-1493
-1467
-1442
-1438
-1472
-1565
-1657
-1732
-1749
-1748
-1759
-1768
-1802
-1866
-1951
-2027
-2077
-2104
-2129
-2169
-2200
-2230
-2273
-2289
-2277
-2259
-2236
-2237
-2249
-2283
-2311
-2324
-2296
-2254
-2226
-2226
-2230
-2254
-2306
-2344
-2321
-2272
-2229
-2200
-2211
-2249
-2299
-2339
-2334
-2306
-2260
-2226
-2205
-2228
-2271
-2303
-2303
-2287
-2272
-2258
-2242
-2244
-2282
-2312
-2292
-2265
-2252
-2247
-2251
-2282
-2309
-2312
-2282
-2242
-2204
-2196
-2217
-2257
-2319
-2341
-2313
-2266
-2236
-2213
-2215
-2246
-2289
-2316
-2296
-2217
-2101
-1983
-1884
-1835
-1807
-1777
-1720
-1660
-1606
-1557
-1519
-1526
-1560
-1556
-1537
-1522
-1514
-1541
-1591
-1680
-1748
-1802
-1829
-1870
-1915
-1982
-2060
-2186
-2292
-2327
-2310
-2270
-2232
-2203
-2182
-2222
-2291
-2341
-2339
-2296
-2244
-2208
-2211
-2222
-2255
-2310
-2309
-2286
-2263
-2243
-2294
-2442
-2616
-2791
-2572
-1792
-838
151
1140
2069
2408
1894
1106
234
-662
-1596
-2241
-2419
-2446
-2412
-2337
-2264
-2226
-2207
-2203
-2237
-2294
-2329
-2325
-2292
-2250
-2232
-2194
-2204
-2251
-2279
-2287
-2234
-2159
-2111
-2088
-2076
-2049
-2033
-1978
-1902
-1834
-1784
-1753
-1750
-1763
-1730
-1686
-1614
-1544
-1519
-1508
-1525
-1546
-1549
-1519
-1440
-1387
-1344
-1327
-1347
-1382
-1426
-1429
-1406
-1370
-1332
-1337
-1389
-1450
-1491
-1526
-1530
-1532
-1539
-1565
-1626
-1697
-1741
-1764
-1780
-1810
-1847
-1901
-1987
-2066
-2123
-2142
-2144
-2162
-2188
-2217
-2256
-2305
-2361
-2341
-2275
-2226
-2199
-2192
-2230
-2295
-2339
-2326
-2297
-2256
-2220
-2202
-2229
-2284
-2298
-2306
-2288
-2260
-2246
-2236
-2250
-2271
-2289
-2278
-2261
-2250
-2234
-2238
-2276
-2299
-2312
-2301
-2263
-2221
-2197
-2219
-2267
-2306
-2336
-2336
-2297
-2237
-2199
-2211
-2238
-2286
-2329
-2331
-2291
-2259
-2231
-2200
-2212
-2252
-2289
-2302
-2291
-2254
-2228
-2242
-2261
-2259
-2214
-2129
-2037
-1949
-1873
-1802
-1765
-1757
-1711
-1642
-1555
-1494
-1474
-1492
-1519
-1570
-1612
-1597
-1568
-1559
-1572
-1616
-1699
-1822
-1924
-1992
-2027
-2075
-2109
-2172
-2216
-2266
-2297
-2297
-2289
-2271
-2246
-2231
-2241
-2275
-2292
-2274
-2242
-2241
-2234
-2261
-2277
-2319
-2318
-2285
-2251
-2254
-2348
-2521
-2736
-2741
-2137
-1219
-182
866
1886
2519
2174
1341
408
-516
-1416
-2144
-2376
-2359
-2314
-2298
-2307
-2302
-2280
-2269
-2260
-2242
-2256
-2284
-2297
-2289
-2262
-2245
-2246
-2246
-2260
-2276
-2266
-2205
-2143
-2066
-2023
-1999
-2002
-2001
-1982
-1923
-1835
-1749
-1699
-1652
-1667
-1697
-1708
-1672
-1609
-1556
-1507
-1457
-1446
-1459
-1471
-1463
-1446
-1377
-1349
-1352
-1367
-1389
-1414
-1395
-1356
-1355
-1376
-1409
-1470
-1531
-1555
-1542
-1541
-1562
-1565
-1606
-1692
-1792
-1851
-1885
-1892
-1894
-1895
-1942
-2017
-2136
-2224
-2277
-2286
-2263
-2224
-2207
-2218
-2257
-2290
-2304
-2279
-2271
-2259
-2247
-2259
-2269
-2277
-2277
-2255
-2240
-2240
-2245
-2262
-2306
-2337
-2306
-2246
-2211
-2197
-2214
-2257
-2313
-2354
-2326
-2285
-2228
-2189
-2187
-2224
-2291
-2329
-2317
-2288
-2263
-2231
-2213
-2221
-2264
-2302
-2307
-2282
-2265
-2258
-2248
-2257
-2286
-2301
-2281
-2236
-2232
-2222
-2237
-2274
-2324
-2322
-2282
-2244
-2221
-2204
-2211
-2208
-2193
-2155
-2057
-1942
-1807
-1702
-1654
-1641
-1667
-1647
-1605
-1551
-1524
-1502
-1476
-1492
-1535
-1580
-1624
-1637
-1677
-1711
-1747
-1816
-1924
-2015
-2085
-2130
-2184
-2217
-2246
-2271
-2315
-2327
-2298
-2246
-2219
-2207
-2214
-2254
-2307
-2336
-2331
-2284
-2221
-2201
-2207
-2232
-2278
-2327
-2352
-2401
-2521
-2665
-2709
-2252
-1424
-490
509
1525
2375
2356
1657
769
-189
-1145
-1994
-2342
-2374
-2330
-2276
-2277
-2317
-2324
-2290
-2249
-2221
-2194
-2211
-2249
-2312
-2347
-2329
-2275
-2226
-2188
-2163
-2163
-2196
-2224
-2198
-2135
-2069
-1995
-1916
-1897
-1884
-1861
-1829
-1777
-1732
-1682
-1650
-1636
-1643
-1633
-1569
-1516
-1481
-1457
-1444
-1463
-1487
-1480
-1421
-1341
-1304
-1311
-1334
-1366
-1421
-1457
-1456
-1413
-1389
-1382
-1411
-1451
-1539
-1612
-1642
-1637
-1640
-1642
-1657
-1725
-1816
-1884
-1925
-1964
-1986
-2031
-2084
-2142
-2209
-2262
-2262
-2253
-2229
-2231
-2234
-2249
-2307
-2342
-2299
-2242
-2221
-2185
-2209
-2254
-2303
-2342
-2320
-2266
-2234
-2209
-2200
-2224
-2281
-2317
-2317
-2288
-2264
-2227
-2223
-2238
-2271
-2296
-2297
-2275
-2263
-2242
-2251
-2267
-2287
-2302
-2275
-2234
-2217
-2220
-2240
-2273
-2322
-2329
-2294
-2247
-2224
-2199
-2207
-2240
-2291
-2337
-2320
-2284
-2239
-2202
-2197
-2229
-2276
-2326
-2332
-2301
-2252
-2200
-2114
-2062
-2024
-1962
-1891
-1803
-1733
-1688
-1638
-1602
-1586
-1580
-1558
-1506
-1466
-1476
-1511
-1551
-1644
-1685
-1706
-1687
-1701
-1742
-1825
-1949
-2089
-2186
-2251
-2263
-2230
-2206
-2196
-2229
-2279
-2317
-2316
-2282
-2259
-2244
-2215
-2223
-2272
-2293
-2296
-2264
-2242
-2234
-2239
-2259
-2299
-2369
-2492
-2620
-2736
-2440
-1673
-747
194
1173
2159
2471
1927
1103
168
-832
-1807
-2395
-2496
-2389
-2284
-2214
-2185
-2222
-2274
-2310
-2316
-2303
-2255
-2221
-2208
-2211
-2250
-2270
-2287
-2269
-2233
-2199
-2167
-2151
-2159
-2144
-2089
-2012
-1947
-1891
-1859
-1854
-1864
-1846
-1769
-1697
-1629
-1582
-1574
-1583
-1609
-1621
-1576
-1519
-1436
-1391
-1376
-1381
-1407
-1437
-1436
-1413
-1375
-1331
-1318
-1341
-1392
-1432
-1428
-1440
-1454
-1457
-1480
-1524
-1596
-1651
-1664
-1647
-1664
-1710
-1775
-1846
-1919
-1987
-2026
-2025
-2030
-2061
-2109
-2189
-2278
-2323
-2329
-2294
-2259
-2200
-2190
-2222
-2274
-2306
-2295
-2286
-2244
-2216
-2204
-2221
-2257
-2281
-2271
-2257
-2256
-2237
-2236
-2258
-2280
-2287
-2274
-2237
-2222
-2221
-2227
-2259
-2303
-2317
-2296
-2263
-2209
-2187
-2204
-2261
-2297
-2327
-2317
-2278
-2241
-2212
-2192
-2220
-2289
-2311
-2309
-2296
-2259
-2231
-2212
-2226
-2257
-2292
-2294
-2284
-2254
-2231
-2239
-2263
-2281
-2294
-2284
-2232
-2136
-2061
-2012
-1958
-1928
-1863
-1787
-1709
-1612
-1535
-1494
-1506
-1576
-1602
-1584
-1536
-1487
-1466
-1499
-1572
-1658
-1751
-1790
-1819
-1852
-1899
-1964
-2059
-2167
-2239
-2253
-2246
-2242
-2235
-2248
-2264
-2276
-2306
-2276
-2236
-2214
-2212
-2230
-2261
-2316
-2332
-2295
-2246
-2214
-2204
-2205
-2286
-2477
-2673
-2822
-2666
-1931
-968
26
988
1907
2412
2033
1264
391
-528
-1461
-2185
-2424
-2416
-2345
-2280
-2266
-2238
-2249
-2253
-2277
-2307
-2273
-2230
-2204
-2201
-2221
-2264
-2314
-2332
-2299
-2229
-2162
-2094
-2074
-2092
-2111
-2116
-2064
-1984
-1881
-1792
-1752
-1734
-1749
-1763
-1738
-1690
-1628
-1579
-1544
-1510
-1517
-1503
-1481
-1439
-1421
-1407
-1381
-1375
-1397
-1400
-1374
-1329
-1309
-1319
-1351
-1391
-1456
-1476
-1492
-1471
-1449
-1466
-1501
-1570
-1682
-1749
-1769
-1762
-1754
-1771
-1819
-1886
-1984
-2056
-2112
-2149
-2166
-2179
-2201
-2207
-2250
-2279
-2269
-2256
-2242
-2229
-2237
-2253
-2281
-2301
-2287
-2252
-2208
-2206
-2224
-2247
-2300
-2331
-2297
-2252
-2226
-2204
-2196
-2231
-2289
-2322
-2313
-2277
-2234
-2205
-2181
-2207
-2253
-2287
-2302
-2282
-2255
-2230
-2216
-2232
-2261
-2282
-2267
-2247
-2232
-2229
-2239
-2252
-2291
-2307
-2276
-2248
-2211
-2206
-2219
-2259
-2313
-2334
-2304
-2236
-2197
-2189
-2204
-2235
-2286
-2312
-2247
-2156
-2049
-1912
-1834
-1800
-1788
-1767
-1728
-1654
-1575
-1526
-1499
-1501
-1532
-1550
-1529
-1505
-1512
-1561
-1604
-1659
-1752
-1816
-1850
-1881
-1941
-2021
-2097
-2209
-2293
-2308
-2309
-2269
-2222
-2196
-2177
-2221
-2285
-2331
-2321
-2287
-2247
-2199
-2192
-2212
-2260
-2309
-2296
-2264
-2239
-2254
-2346
-2502
-2704
-2736
-2187
-1304
-306
681
1679
2404
2204
1467
629
-262
-1181
-1997
-2338
-2419
-2414
-2367
-2304
-2247
-2204
-2186
-2184
-2242
-2289
-2323
-2312
-2259
-2221
-2212
-2188
-2216
-2245
-2257
-2252
-2206
-2150
-2094
-2054
-2028
-2012
-1985
-1922
-1869
-1822
-1768
-1724
-1722
-1738
-1721
-1664
-1599
-1536
-1498
-1492
-1501
-1529
-1534
-1484
-1422
-1349
-1319
-1315
-1347
-1398
-1427
-1417
-1393
-1360
-1337
-1331
-1382
-1439
-1492
-1521
-1530
-1546
-1565
-1583
-1632
-1691
-1754
-1794
-1819
-1845
-1872
-1918
-1987
-2066
-2117
-2142
-2170
-2174
-2187
-2218
-2252
-2306
-2347
-2317
-2260
-2212
-2186
-2190
-2217
-2282
-2332
-2322
-2287
-2256
-2219
-2181
-2217
-2272
-2292
-2294
-2289
-2254
-2229
-2216
-2239
-2263
-2285
-2266
-2249
-2227
-2222
-2227
-2256
-2284
-2291
-2271
-2229
-2222
-2212
-2217
-2252
-2304
-2331
-2301
-2246
-2213
-2176
-2174
-2217
-2284
-2319
-2326
-2291
-2229
-2206
-2183
-2212
-2259
-2286
-2296
-2276
-2253
-2232
-2224
-2217
-2210
-2173
-2093
-1997
-1901
-1824
-1766
-1751
-1734
-1669
-1596
-1521
-1470
-1469
-1479
-1511
-1549
-1597
-1568
-1558
-1576
-1602
-1647
-1724
-1848
-1960
-2039
-2090
-2107
-2148
-2174
-2221
-2254
-2294
-2298
-2279
-2256
-2238
-2222
-2227
-2255
-2286
-2271
-2241
-2224
-2215
-2227
-2269
-2298
-2307
-2277
-2244
-2292
-2431
-2618
-2782
-2463
-1668
-672
371
1415
2343
2451
1779
883
-63
-996
-1866
-2312
-2364
-2312
-2240
-2260
-2291
-2293
-2279
-2259
-2232
-2221
-2235
-2257
-2271
-2265
-2241
-2232
-2235
-2234
-2239
-2251
-2232
-2184
-2112
-2042
-1993
-1975
-1976
-1981
-1971
-1894
-1800
-1722
-1661
-1629
-1632
-1669
-1666
-1632
-1582
-1520
-1453
-1412
-1412
-1443
-1468
-1452
-1409
-1362
-1344
-1334
-1346
-1375
-1396
-1388
-1375
-1367
-1382
-1414
-1456
-1520
-1550
-1556
-1551
-1561
-1576
-1621
-1714
-1811
-1879
-1892
-1894
-1894
-1913
-1949
-2037
-2151
-2242
-2279
-2285
-2249
-2202
-2170
-2194
-2247
-2286
-2287
-2270
-2257
-2254
-2234
-2234
-2261
-2281
-2273
-2244
-2228
-2224
-2243
-2261
-2277
-2307
-2288
-2235
-2192
-2182
-2228
-2270
-2303
-2331
-2328
-2262
-2219
-2186
-2185
-2225
-2274
-2319
-2323
-2297
-2249
-2201
-2191
-2215
-2256
-2301
-2292
-2272
-2248
-2241
-2234
-2251
-2285
-2286
-2268
-2243
-2220
-2216
-2224
-2237
-2296
-2302
-2277
-2252
-2212
-2196
-2184
-2164
-2142
-2088
-1989
-1846
-1750
-1671
-1620
-1614
-1629
-1624
-1595
-1547
-1510
-1486
-1466
-1484
-1546
-1599
-1631
-1664
-1681
-1710
-1767
-1856
-1956
-2049
-2111
-2167
-2212
-2216
-2232
-2241
-2269
-2303
-2279
-2225
-2196
-2192
-2201
-2248
-2298
-2327
-2329
-2276
-2226
-2188
-2191
-2219
-2276
-2319
-2360
-2466
-2587
-2721
-2531
-1820
-914
40
1051
2071
2501
2025
1198
266
-692
-1637
-2275
-2403
-2372
-2304
-2257
-2271
-2312
-2320
-2292
-2231
-2196
-2192
-2214
-2255
-2303
-2322
-2296
-2262
-2209
-2172
-2161
-2154
-2178
-2195
-2165
-2099
-2049
-1951
-1890
-1868
-1849
-1832
-1812
-1767
-1723
-1667
-1618
-1605
-1608
-1593
-1539
-1490
-1459
-1427
-1407
-1424
-1457
-1459
-1404
-1352
-1308
-1295
-1323
-1354
-1408
-1444
-1444
-1414
-1382
-1373
-1395
-1460
-1554
-1619
-1659
-1657
-1659
-1659
-1686
-1757
-1831
-1899
-1959
-1991
-2018
-2059
-2099
-2154
-2227
-2257
-2257
-2251
-2230
-2221
-2236
-2262
-2288
-2296
-2281
-2227
-2204
-2189
-2205
-2237
-2302
-2334
-2316
-2258
-2222
-2206
-2197
-2216
-2272
-2316
-2315
-2283
-2256
-2220
-2199
-2212
-2243
-2292
-2303
-2277
-2251
-2234
-2228
-2242
-2281
-2296
-2264
-2226
-2225
-2219
-2227
-2249
-2287
-2309
-2281
-2235
-2203
-2199
-2201
-2249
-2299
-2321
-2314
-2269
-2228
-2189
-2188
-2208
-2280
-2329
-2316
-2283
-2230
-2142
-2047
-2009
-1975
-1916
-1843
-1768
-1704
-1637
-1576
-1561
-1571
-1549
-1524
-1509
-1493
-1487
-1511
-1572
-1647
-1694
-1704
-1702
-1730
-1796
-1876
-1989
-2106
-2219
-2284
-2254
-2200
-2177
-2184
-2219
-2271
-2317
-2309
-2296
-2267
-2229
-2212
-2222
-2257
-2294
-2285
-2281
-2266
-2236
-2236
-2237
-2304
-2449
-2577
-2716
-2668
-2052
-1164
-229
719
1720
2424
2211
1497
618
-330
-1332
-2146
-2452
-2464
-2356
-2242
-2193
-2191
-2201
-2264
-2312
-2304
-2279
-2260
-2218
-2201
-2231
-2275
-2286
-2284
-2268
-2233
-2181
-2157
-2144
-2139
-2111
-2062
-1986
-1923
-1879
-1846
-1830
-1832
-1809
-1764
-1672
-1605
-1558
-1548
-1564
-1593
-1617
-1564
-1491
-1421
-1374
-1351
-1362
-1399
-1423
-1429
-1396
-1363
-1334
-1324
-1333
-1369
-1419
-1450
-1456
-1450
-1460
-1489
-1552
-1619
-1655
-1670
-1678
-1702
-1734
-1791
-1857
-1947
-2014
-2041
-2039
-2044
-2079
-2149
-2230
-2299
-2332
-2307
-2269
-2228
-2196
-2180
-2207
-2271
-2306
-2312
-2278
-2261
-2214
-2201
-2214
-2257
-2283
-2275
-2271
-2238
-2237
-2245
-2254
-2267
-2291
-2282
-2249
-2218
-2216
-2229
-2246
-2296
-2315
-2287
-2242
-2215
-2181
-2191
-2251
-2296
-2337
-2329
-2272
-2237
-2200
-2193
-2226
-2278
-2321
-2325
-2297
-2264
-2219
-2192
-2211
-2257
-2277
-2278
-2269
-2265
-2245
-2238
-2245
-2264