
-103929
-67504
-47139
-34457
-26093
-20325
-16107
-12947
-10552
-8746
-7325
-6226
-5376
-4714
-4245
-3928
-3662
-3436
-3262
-3149
-3067
-3002
-2921
-2797
-2688
-2602
-2546
-2521
-2534
-2579
-2579
-2532
-2464
-2413
-2378
-2368
-2391
-2447
-2477
-2449
-2414
-2377
-2344
-2326
-2359
-2382
-2391
-2398
-2382
-2344
-2335
-2344
-2364
-2400
-2394
-2362
-2336
-2311
-2319
-2336
-2373
-2418
-2425
-2386
-2338
-2302
-2287
-2296
-2332
-2389
-2424
-2419
-2361
-2319
-2285
-2272
-2304
-2363
-2394
-2391
-2367
-2339
-2303
-2297
-2312
-2334
-2364
-2376
-2359
-2328
-2321
-2331
-2343
-2351
-2359
-2341
-2302
-2300
-2306
-2325
-2360
-2394
-2401
-2376
-2322
-2281
-2274
-2295
-2341
-2388
-2424
-2400
-2347
-2303
-2279
-2261
-2296
-2346
-2374
-2377
-2341
-2298
-2282
-2278
-2306
-2351
-2365
-2349
-2351
-2332
-2322
-2319
-2341
-2372
-2366
-2337
-2296
-2283
-2286
-2308
-2350
-2386
-2393
-2350
-2289
-2254
-2239
-2278
-2317
-2381
-2409
-2397
-2325
-2289
-2255
-2250
-2279
-2335
-2372
-2380
-2339
-2317
-2283
-2276
-2302
-2330
-2345
-2338
-2328
-2312
-2308
-2312
-2311
-2339
-2338
-2318
-2291
-2275
-2274
-2284
-2332
-2377
-2372
-2329
-2300
-2283
-2255
-2267
-2317
-2372
-2385
-2369
-2328
-2286
-2258
-2257
-2280
-2323
-2359
-2359
-2322
-2306
-2264
-2272
-2294
-2317
-2351
-2341
-2315
-2299
-2279
-2289
-2304
-2337
-2344
-2320
-2280
-2272
-2271
-2292
-2332
-2377
-2370
-2342
-2306
-2251
-2224
-2241
-2299
-2359
-2385
-2371
-2321
-2276
-2236
-2226
-2262
-2318
-2362
-2362
-2329
-2292
-2279
-2262
-2281
-2316
-2327
-2333
-2319
-2297
-2284
-2291
-2319
-2331
-2344
-2306
-2275
-2272
-2271
-2287
-2314
-2358
-2355
-2327
-2258
-2223
-2224
-2253
-2299
-2362
-2379
-2367
-2311
-2261
-2232
-2232
-2262
-2318
-2352
-2352
-2333
-2314
-2277
-2264
-2284
-2311
-2322
-2329
-2319
-2289
-2277
-2277
-2307
-2329
-2322
-2319
-2272
-2255
-2258
-2281
-2303
-2344
-2362
-2327
-2284
-2246
-2230
-2234
-2286
-2342
-2364
-2362
-2303
-2269
-2238
-2229
-2257
-2319
-2352
-2342
-2272
-2179
-2085
-1987
-1917
-1870
-1821
-1771
-1718
-1652
-1601
-1562
-1564
-1603
-1587
-1551
-1521
-1505
-1527
-1596
-1679
-1761
-1804
-1842
-1859
-1892
-1954
-2051
-2167
-2287
-2350
-2337
-2307
-2259
-2239
-2224
-2243
-2300
-2347
-2351
-2310
-2292
-2264
-2253
-2260
-2305
-2314
-2314
-2294
-2287
-2272
-2282
-2301
-2310
-2314
-2289
-2268
-2247
-2246
-2268
-2306
-2344
-2356
-2319
-2283
-2346
-2479
-2661
-2769
-2346
-1521
-534
517
1567
2420
2356
1613
694
-252
-1186
-2028
-2406
-2422
-2352
-2314
-2324
-2315
-2315
-2292
-2272
-2259
-2275
-2300
-2315
-2303
-2302
-2265
-2253
-2250
-2254
-2292
-2352
-2362
-2319
-2275
-2231
-2221
-2230
-2276
-2345
-2374
-2349
-2309
-2254
-2220
-2226
-2253
-2312
-2354
-2342
-2317
-2288
-2254
-2249
-2261
-2289
-2311
-2307
-2292
-2274
-2261
-2280
-2278
-2315
-2336
-2297
-2249
-2241
-2239
-2277
-2306
-2319
-2302
-2257
-2167
-2099
-2053
-2025
-2034
-2037
-2023
-1961
-1861
-1784
-1727
-1687
-1692
-1709
-1709
-1690
-1626
-1569
-1521
-1491
-1484
-1491
-1487
-1466
-1433
-1409
-1389
-1377
-1396
-1423
-1424
-1401
-1369
-1366
-1394
-1433
-1486
-1547
-1574
-1565
-1554
-1544
-1569
-1607
-1693
-1790
-1866
-1894
-1899
-1893
-1912
-1955
-2033
-2131
-2214
-2260
-2280
-2274
-2252
-2233
-2251
-2274
-2294
-2294
-2286
-2265
-2264
-2266
-2284
-2314
-2321
-2291
-2254
-2234
-2229
-2251
-2286
-2329
-2331
-2310
-2268
-2216
-2207
-2219
-2274
-2327
-2342
-2337
-2307
-2257
-2224
-2191
-2231
-2308
-2346
-2337
-2302
-2275
-2254
-2217
-2244
-2286
-2302
-2292
-2286
-2261
-2253
-2262
-2279
-2306
-2313
-2284
-2246
-2229
-2239
-2261
-2291
-2328
-2337
-2311
-2258
-2227
-2208
-2217
-2260
-2331
-2367
-2343
-2294
-2245
-2211
-2229
-2238
-2292
-2338
-2322
-2292
-2262
-2246
-2248
-2255
-2284
-2301
-2307
-2274
-2256
-2256
-2246
-2265
-2306
-2306
-2270
-2241
-2221
-2225
-2250
-2284
-2332
-2342
-2307
-2261
-2222
-2202
-2208
-2261
-2326
-2354
-2330
-2293
-2256
-2220
-2206
-2254
-2293
-2313
-2312
-2296
-2269
-2234
-2232
-2242
-2267
-2286
-2280
-2269
-2248
-2256
-2256
-2288
-2306
-2301
-2291
-2257
-2237
-2227
-2234
-2288
-2336
-2324
-2286
-2241
-2216
-2205
-2219
-2252
-2302
-2327
-2331
-2293
-2239
-2213
-2216
-2231
-2282
-2321
-2319
-2293
-2268
-2236
-2230
-2242
-2284
-2301
-2289
-2259
-2239
-2236
-2240
-2269
-2310
-2307
-2266
-2224
-2223
-2229
-2246
-2281
-2324
-2330
-2299
-2246
-2234
-2200
-2204
-2257
-2326
-2346
-2344
-2294
-2232
-2202
-2202
-2239
-2294
-2320
-2323
-2297
-2261
-2246
-2233
-2246
-2268
-2293
-2297
-2260
-2247
-2247
-2258
-2265
-2279
-2292
-2289
-2242
-2218
-2222
-2228
-2262
-2322
-2343
-2297
-2253
-2221
-2197
-2221
-2268
-2321
-2342
-2328
-2275
-2237
-2206
-2202
-2222
-2281
-2307
-2316
-2299
-2280
-2249
-2232
-2246
-2276
-2286
-2289
-2284
-2247
-2249
-2256
-2274
-2299
-2306
-2276
-2228
-2226
-2226
-2236
-2289
-2327
-2333
-2311
-2256
-2217
-2193
-2196
-2257
-2324
-2341
-2331
-2286
-2240
-2211
-2201
-2227
-2286
-2301
-2322
-2286
-2259
-2239
-2221
-2245
-2287
-2286
-2282
-2291
-2263
-2241
-2246
-2271
-2304
-2306
-2285
-2256
-2241
-2237
-2246
-2271
-2326
-2337
-2292
-2245
-2207
-2201
-2199
-2246
-2322
-2350
-2325
-2282
-2247
-2204
-2197
-2227
-2279
-2309
-2307
-2290
-2267
-2232
-2219
-2243
-2282
-2297
-2283
-2256
-2256
-2259
-2256
-2283
-2295
-2286
-2269
-2242
-2222
-2220
-2232
-2281
-2326
-2329
-2300
-2255
-2211
-2199
-2202
-2236
-2302
-2345
-2319
-2277
-2227
-2182
-2184
-2209
-2269
-2320
-2320
-2284
-2271
-2247
-2225
-2249
-2275
-2286
-2269
-2270
-2260
-2237
-2254
-2273
-2297
-2298
-2268
-2232
-2211
-2231
-2231
-2281
-2319
-2337
-2299
-2259
-2212
-2183
-2204
-2236
-2306
-2337
-2327
-2284
-2237
-2219
-2214
-2232
-2286
-2321
-2306
-2284
-2266
-2224
-2212
-2234
-2271
-2287
-2279
-2267
-2254
-2246
-2255
-2274
-2297
-2292
-2284
-2244
-2224
-2213
-2238
-2289
-2341
-2332
-2289
-2250
-2216
-2185
-2199
-2247
-2304
-2342
-2339
-2296
-2242
-2203
-2194
-2221
-2268
-2304
-2299
-2291
-2267
-2245
-2234
-2245
-2271
-2304
-2280
-2267
-2244
-2224
-2238
-2269
-2290
-2299
-2287
-2251
-2219
-2226
-2241
-2272
-2324
-2323
-2286
-2243
-2207
-2181
-2198
-2246
-2312
-2345
-2315
-2287
-2239
-2206
-2205
-2217
-2268
-2302
-2317
-2284
-2251
-2229
-2224
-2237
-2274
-2290
-2293
-2259
-2251
-2247
-2237
-2266
-2299
-2299
-2264
-2221
-2212
-2208
-2224
-2264
-2329
-2335
-2295
-2241
-2196
-2179
-2204
-2258
-2313
-2349
-2334
-2296
-2235
-2188
-2202
-2229
-2260
-2301
-2310
-2296
-2272
-2235
-2209
-2244
-2271
-2281
-2277
-2273
-2246
-2254
-2255
-2269
-2290
-2297
-2277
-2252
-2212
-2219
-2244
-2288
-2329
-2320
-2297
-2261
-2211
-2182
-2202
-2251
-2285
-2279
-2212
-2097
-1977
-1864
-1791
-1747
-1742
-1741
-1679
-1621
-1566
-1512
-1493
-1508
-1548
-1537
-1536
-1537
-1568
-1597
-1662
-1737
-1811
-1859
-1903
-1955
-2001
-2082
-2185
-2269
-2325
-2346
-2311
-2256
-2207
-2189
-2216
-2254
-2312
-2336
-2320
-2261
-2238
-2209
-2200
-2229
-2285
-2322
-2313
-2281
-2253
-2242
-2230
-2236
-2276
-2292
-2282
-2249
-2237
-2229
-2243
-2262
-2286
-2308
-2384
-2502
-2636
-2714
-2267
-1449
-552
426
1479
2381
2392
1723
831
-139
-1140
-2041
-2444
-2435
-2337
-2238
-2200
-2217
-2264
-2308
-2311
-2279
-2251
-2214
-2205
-2234
-2275
-2279
-2267
-2266
-2258
-2241
-2245
-2265
-2295
-2297
-2274
-2241
-2214
-2221
-2230
-2284
-2326
-2331
-2288
-2250
-2212
-2200
-2208
-2242
-2297
-2321
-2318
-2278
-2226
-2196
-2215
-2232
-2280
-2313
-2309
-2296
-2266
-2231
-2213
-2237
-2272
-2291
-2284
-2271
-2244
-2234
-2225
-2236
-2238
-2196
-2135
-2060
-2008
-1964
-1941
-1949
-1936
-1914
-1836
-1755
-1692
-1634
-1627
-1644
-1670
-1657
-1617
-1547
-1475
-1426
-1406
-1411
-1439
-1452
-1427
-1402
-1372
-1342
-1331
-1347
-1383
-1398
-1385
-1381
-1389
-1419
-1452
-1502
-1549
-1582
-1587
-1581
-1604
-1622
-1689
-1777
-1881
-1929
-1944
-1937
-1943
-1967
-2025
-2129
-2226
-2298
-2317
-2275
-2244
-2220
-2191
-2221
-2279
-2314
-2296
-2265
-2245
-2239
-2228
-2249
-2264
-2286
-2269
-2259
-2242
-2242
-2259
-2270
-2275
-2281
-2262
-2232
-2202
-2194
-2227
-2274
-2320
-2341
-2317
-2258
-2208
-2183
-2197
-2236
-2294
-2333
-2301
-2264
-2242
-2219
-2196
-2234
-2274
-2307
-2299
-2275
-2244
-2224
-2224
-2236
-2262
-2277
-2263
-2249
-2244
-2247
-2235
-2259
-2304
-2307
-2286
-2246
-2216
-2211
-2229
-2272
-2337
-2342
-2297
-2237
-2199
-2181
-2199
-2240
-2287
-2329
-2327
-2293
-2246
-2214
-2195
-2220
-2264
-2309
-2309
-2283
-2257
-2236
-2214
-2236
-2254
-2272
-2280
-2271
-2237
-2237
-2231
-2274
-2281
-2295
-2272
-2228
-2192
-2203
-2218
-2261
-2316
-2342
-2296
-2245
-2207
-2192
-2194
-2242
-2301
-2329
-2311
-2264
-2236
-2206
-2199
-2214
-2262
-2305
-2311
-2282
-2252
-2233
-2225
-2232
-2269
-2282
-2270
-2257
-2245
-2242
-2242
-2267
-2281
-2281
-2266
-2241
-2208
-2209
-2211
-2247
-2306
-2327
-2298
-2247
-2209
-2184
-2193
-2237
-2299
-2333
-2312
-2265
-2214
-2177
-2186
-2227
-2267
-2302
-2296
-2271
-2252
-2230
-2217
-2239
-2271
-2282
-2277
-2259
-2244
-2237
-2224
-2249
-2291
-2294
-2266
-2234
-2209
-2204
-2220
-2265
-2312
-2319
-2289
-2246
-2216
-2183
-2186
-2242
-2304
-2332
-2316
-2276
-2237
-2211
-2197
-2228
-2271
-2282
-2290
-2275
-2247
-2235
-2229
-2244
-2264
-2281
-2279
-2247
-2231
-2237
-2234
-2258
-2302
-2306
-2279
-2245
-2201
-2196
-2222
-2272
-2311
-2317
-2301
-2263
-2217
-2187
-2174
-2227
-2284
-2311
-2306
-2279
-2232
-2209
-2184
-2214
-2264
-2296
-2287
-2271
-2246
-2221
-2199
-2241
-2286
-2283
-2273
-2246
-2221
-2233
-2235
-2262
-2300
-2311
-2278
-2228
-2201
-2195
-2228
-2261
-2298
-2322
-2296
-2240
-2210
-2188
-2187
-2234
-2296
-2326
-2305
-2278
-2224
-2201
-2179
-2206
-2264
-2297
-2293
-2274
-2246
-2232
-2213
-2230
-2270
-2282
-2276
-2249
-2237
-2222
-2231
-2261
-2294
-2300
-2281
-2239
-2214
-2201
-2215
-2262
-2313
-2321
-2294
-2247
-2215
-2189
-2211
-2235
-2269
-2321
-2317
-2287
-2229
-2206
-2206
-2214
-2263
-2298
-2274
-2257
-2241
-2239
-2221
-2229
-2277
-2293
-2269
-2261
-2249
-2234
-2232
-2269
-2294
-2309
-2286
-2236
-2217
-2204
-2226
-2244
-2291
-2322
-2295
-2245
-2212
-2191
-2192
-2240
-2294
-2323
-2311
-2273
-2234
-2208
-2209
-2206
-2266
-2307
-2294
-2272
-2248
-2220
-2215
-2249
-2279
-2294
-2282
-2251
-2225
-2217
-2227
-2257
-2296
-2303
-2271
-2216
-2199
-2192
-2212
-2261
-2312
-2329
-2289
-2243
-2210
-2196
-2184
-2239
-2301
-2321
-2312
-2268
-2230
-2188
-2184
-2223
-2256
-2298
-2304
-2273
-2258
-2237
-2211
-2236
-2270
-2268
-2255
-2246
-2239
-2226
-2241
-2271
-2284
-2289
-2274
-2227
-2214
-2211
-2216
-2256
-2302
-2324
-2293
-2256
-2202
-2172
-2181
-2231
-2293
-2321
-2304
-2266
-2224
-2208
-2186
-2204
-2264
-2293
-2286
-2285
-2252
-2226
-2215
-2236
-2272
-2279
-2258
-2245
-2222
-2234
-2238
-2266
-2296
-2292
-2266
-2226
-2201
-2199
-2219
-2266
-2301
-2318
-2287
-2250
-2218
-2186
-2195
-2231
-2289
-2316
-2306
-2272
-2221
-2186
-2203
-2232
-2277
-2296
-2279
-2266
-2244
-2228
-2224
-2232
-2257
-2269
-2266
-2264
-2243
-2219
-2232
-2269
-2301
-2297
-2268
-2223
-2198
-2196
-2212
-2271
-2313
-2322
-2276
-2254
-2216
-2194
-2199
-2219
-2281
-2323
-2308
-2266
-2222
-2207
-2193
-2225
-2268
-2278
-2286
-2262
-2226
-2209
-2209
-2222
-2252
-2279
-2258
-2247
-2244
-2234
-2237
-2264
-2291
-2286
-2270
-2238
-2211
-2188
-2197
-2202
-2187
-2136
-2054
-1913
-1774
-1682
-1652
-1657
-1671
-1656
-1602
-1547
-1502
-1467
-1463
-1486
-1521
-1586
-1617
-1632
-1656
-1687
-1724
-1788
-1904
-1997
-2062
-2131
-2177
-2217
-2228
-2259
-2284
-2297
-2269
-2235
-2209
-2207
-2210
-2243
-2311
-2339
-2299
-2239
-2195
-2180
-2185
-2226
-2285
-2311
-2309
-2278
-2235
-2206
-2181
-2224
-2256
-2292
-2295
-2270
-2241
-2219
-2207
-2235
-2352
-2516
-2673
-2742
-2292
-1449
-489
473
1448
2313
2336
1711
869
-51
-1017
-1926
-2392
-2486
-2406
-2289
-2218
-2180
-2188
-2224
-2282
-2317
-2307
-2275
-2231
-2209
-2189
-2217
-2266
-2302
-2289
-2267
-2235
-2217
-2209
-2228
-2255
-2274
-2263
-2252
-2224
-2219
-2224
-2256
-2293
-2296
-2269
-2227
-2193
-2179
-2194
-2254
-2309
-2331
-2300
-2237
-2214
-2189
-2184
-2234
-2282
-2329
-2319
-2279
-2237
-2176
-2174
-2207
-2253
-2289
-2285
-2276
-2231
-2179
-2133
-2122
-2124
-2116
-2057
-1989
-1937
-1886
-1856
-1836
-1822
-1802
-1739
-1664
-1598
-1562
-1562
-1594
-1628
-1594
-1528
-1463
-1393
-1361
-1354
-1377
-1419
-1440
-1408
-1362
-1342
-1302
-1286
-1317
-1364
-1431
-1441
-1449
-1447
-1453
-1471
-1519
-1598
-1646
-1666
-1662
-1684
-1732
-1777
-1855
-1924
-1977
-1994
-2007
-2033
-2070
-2137
-2240
-2299
-2316
-2295
-2250
-2201
-2179
-2171
-2220
-2279
-2319
-2307
-2269
-2222
-2187
-2174
-2205
-2246
-2290
-2287
-2268
-2241
-2234
-2220
-2227
-2256
-2262
-2259
-2252
-2233
-2229
-2232
-2246
-2274
-2287
-2267
-2244
-2207
-2207
-2219
-2243
-2294
-2330
-2289
-2237
-2186
-2174
-2189
-2240
-2287
-2329
-2307
-2274
-2227
-2178
-2187
-2204
-2242
-2286
-2288
-2266
-2246
-2222
-2203
-2231
-2264
-2262
-2244
-2237
-2224
-2217
-2226
-2249
-2279
-2290
-2267
-2228
-2205
-2194
-2203
-2254
-2300
-2320
-2292
-2241
-2199
-2174
-2189
-2224
-2271
-2307
-2309
-2277
-2235
-2204
-2188
-2211
-2255
-2274
-2272
-2254
-2252
-2235
-2216
-2232
-2252
-2272
-2257
-2231
-2225
-2207
-2217
-2254
-2286
-2300
-2263
-2230
-2201
-2185
-2202
-2251
-2301
-2312
-2283
-2239
-2189
-2166
-2177
-2221
-2284
-2324
-2291
-2262
-2235
-2187
-2174
-2211
-2263
-2299
-2289
-2266
-2234
-2214
-2206
-2212
-2240
-2267
-2267
-2241
-2217
-2201
-2210
-2255
-2286
-2291
-2249
-2212
-2192
-2184
-2205
-2262
-2307
-2306
-2285
-2245
-2209
-2183
-2193
-2224
-2273
-2296
-2303
-2287
-2241
-2201
-2185
-2212
-2259
-2290
-2281
-2264
-2240
-2226
-2217
-2231
-2266
-2271
-2241
-2241
-2239
-2223
-2226
-2264
-2287
-2291
-2277
-2231
-2197
-2183
-2189
-2247
-2304
-2313
-2296
-2253
-2187
-2167
-2179
-2216
-2272
-2300
-2288
-2260
-2226
-2191
-2189
-2207
-2248
-2289
-2305
-2275
-2237
-2215
-2217
-2218
-2264
-2271
-2258
-2241
-2234
-2232
-2216
-2252
-2290
-2288
-2259
-2214
-2182
-2185
-2211
-2257
-2307
-2314
-2283
-2235
-2195
-2167
-2184
-2225
-2291
-2322
-2302
-2262
-2218
-2192
-2186
-2211
-2239
-2278
-2282
-2259
-2247
-2226
-2207
-2232
-2255
-2262
-2265
-2245
-2222
-2210
-2227
-2262
-2292
-2302
-2267
-2222
-2197
-2184
-2204
-2244
-2304
-2319
-2274
-2228
-2200
-2184
-2189
-2210
-2265
-2316
-2316
-2269
-2226
-2180
-2180
-2212
-2249
-2277
-2272
-2262
-2229
-2211
-2216
-2237
-2259
-2265
-2241
-2238
-2219
-2207
-2221
-2256
-2280
-2294
-2262
-2215
-2173
-2174
-2198
-2245
-2287
-2316
-2283
-2243
-2192
-2174
-2161
-2210
-2269
-2302
-2301
-2264
-2227
-2197
-2182
-2206
-2243
-2262
-2268
-2250
-2232
-2207
-2219
-2235
-2251
-2270
-2255
-2232
-2222
-2216
-2230
-2264
-2287
-2281
-2258
-2212
-2180
-2175
-2206
-2260
-2301
-2321
-2303
-2241
-2200
-2159
-2166
-2205
-2259
-2310
-2296
-2254
-2222
-2169
-2172
-2201
-2232
-2266
-2271
-2254
-2236
-2218
-2217
-2226
-2254
-2267
-2254
-2245
-2226
-2205
-2214
-2254
-2299
-2287
-2260
-2224
-2187
-2186
-2208
-2233
-2284
-2319
-2284
-2229
-2192
-2173
-2182
-2211
-2271
-2302
-2285
-2273
-2247
-2190
-2173
-2206
-2242
-2273
-2262
-2247
-2238
-2234
-2218
-2222
-2251
-2267
-2251
-2237
-2214
-2216
-2225
-2248
-2282
-2289
-2250
-2232
-2206
-2192
-2191
-2239
-2310
-2325
-2291
-2249
-2189
-2177
-2166
-2212
-2271
-2301
-2296
-2254
-2226
-2207
-2200
-2206
-2239
-2274
-2285
-2255
-2244
-2226
-2205
-2219
-2246
-2262
-2253
-2237
-2216
-2203
-2216
-2249
-2283
-2294
-2259
-2219
-2196
-2181
-2206
-2264
-2302
-2316
-2289
-2242
-2200
-2171
-2169
-2212
-2267
-2290
-2296
-2270
-2229
-2193
-2181
-2206
-2238
-2266
-2287
-2278
-2237
-2214
-2195
-2228
-2257
-2272
-2263
-2231
-2219
-2196
-2206
-2242
-2277
-2286
-2250
-2217
-2180
-2181
-2200
-2237
-2294
-2314
-2276
-2242
-2202
-2178
-2176
-2226
-2279
-2308
-2299
-2267
-2221
-2192
-2176
-2187
-2234
-2272
-2264
-2239
-2230
-2221
-2201
-2229
-2264
-2272
-2241
-2218
-2212
-2172
-2120
-2074
-2026
-1939
-1842
-1752
-1656
-1597
-1566
-1582
-1587
-1592
-1557
-1481
-1448
-1431
-1442
-1497
-1591
-1661
-1714
-1718
-1714
-1759
-1824
-1917
-2014
-2135
-2229
-2254
-2229
-2211
-2213
-2227
-2246
-2253
-2244
-2231
-2232
-2219
-2213
-2266
-2303
-2300
-2268
-2224
-2187
-2172
-2197
-2242
-2291
-2312
-2286
-2247
-2192
-2176
-2178
-2220
-2272
-2309
-2294
-2270
-2226
-2222
-2289
-2448
-2658
-2781
-2357
-1495
-509
504
1505
2328
2352
1697
856
-57
-1001
-1886
-2330
-2409
-2387
-2336
-2272
-2221
-2199
-2177
-2207
-2244
-2294
-2323
-2289
-2248
-2207
-2176
-2179
-2221
-2272
-2306
-2286
-2267
-2222
-2186
-2174
-2209
-2224
-2283
-2290
-2254
-2239
-2224
-2215
-2222
-2248
-2271
-2261
-2221
-2202
-2207
-2207
-2247
-2291
-2302
-2269
-2217
-2196
-2200
-2199
-2234
-2285
-2306
-2279
-2242
-2196
-2177
-2174
-2216
-2264
-2291
-2269
-2214
-2149
-2092
-2057
-2043
-2055
-2042
-1991
-1934
-1877
-1803
-1764
-1744
-1733
-1725
-1676
-1616
-1571
-1546
-1531
-1531
-1544
-1515
-1462
-1399
-1338
-1320
-1344
-1366
-1402
-1427
-1402
-1349
-1314
-1294
-1292
-1332
-1424
-1470
-1492
-1486
-1476
-1482
-1517
-1564
-1626
-1689
-1721
-1762
-1789
-1803
-1852
-1909
-1992
-2052
-2087
-2105
-2141
-2197
-2221
-2258
-2294
-2294
-2271
-2224
-2186
-2174
-2194
-2246
-2299
-2322
-2301
-2246
-2202
-2167
-2181
-2229
-2273
-2302
-2304
-2274
-2234
-2201
-2178
-2214
-2249
-2284
-2281
-2259
-2249
-2227
-2216
-2236
-2256
-2262
-2234
-2231
-2219
-2209
-2211
-2244
-2286
-2284
-2251
-2220
-2191
-2174
-2199
-2256
-2299
-2329
-2297
-2246
-2185
-2171
-2180
-2211
-2262
-2294
-2304
-2259
-2231
-2196
-2174
-2197
-2244
-2281
-2275
-2257
-2240
-2234
-2211
-2223
-2256
-2271
-2243
-2212
-2208
-2209
-2223
-2239
-2277
-2287
-2258
-2222
-2189
-2193
-2196
-2239
-2291
-2314
-2295
-2239
-2187
-2171
-2162
-2208
-2271
-2309
-2314
-2279
-2229
-2194
-2174
-2189
-2241
-2262
-2267
-2254
-2235
-2211
-2209
-2222
-2246
-2266
-2260
-2242
-2216
-2217
-2228
-2262
-2299
-2297
-2254
-2230
-2202
-2186
-2191
-2239
-2286
-2309
-2280
-2237
-2202
-2187
-2177
-2211
-2276
-2321
-2297
-2269
-2237
-2202
-2189
-2203
-2227
-2263
-2284
-2276
-2242
-2222
-2221
-2240
-2257
-2270
-2257
-2219
-2202
-2211
-2226
-2244
-2277
-2293
-2261
-2204
-2181
-2185
-2195
-2234
-2299
-2327
-2291
-2242
-2204
-2170
-2172
-2200
-2265
-2300
-2283
-2270
-2231
-2201
-2179
-2197
-2239
-2271
-2267
-2252
-2244
-2219
-2205
-2226
-2242
-2253
-2248
-2222
-2209
-2209
-2224
-2248
-2286
-2287
-2254
-2229
-2188
-2177
-2191
-2228
-2279
-2321
-2294
-2237
-2193
-2156
-2168
-2214
-2272
-2316
-2311
-2271
-2221
-2183
-2173
-2201
-2261
-2282
-2285
-2246
-2239
-2230
-2217
-2226
-2257
-2274
-2244
-2224
-2209
-2204
-2222
-2249
-2284
-2297
-2261
-2216
-2195
-2195
-2206
-2250
-2291
-2315
-2297
-2263
-2205
-2186
-2190
-2213
-2272
-2307
-2295
-2261
-2228
-2191
-2186
-2195
-2236
-2279
-2278
-2246
-2234
-2222
-2222
-2241
-2251
-2257
-2246
-2230
-2219
-2210
-2221
-2256
-2299
-2299
-2271
-2227
-2199
-2183
-2186
-2221
-2277
-2307
-2301
-2252
-2191
-2177
-2182
-2211
-2264
-2303
-2293
-2274
-2234
-2204
-2180
-2204
-2235
-2264
-2275
-2255
-2233
-2219
-2209
-2215
-2247
-2261
-2253
-2216
-2201
-2201
-2211
-2254
-2291
-2295
-2274
-2224
-2185
-2182
-2196
-2234
-2288
-2315
-2287
-2240
-2196
-2171
-2174
-2213
-2270
-2311
-2299
-2269
-2227
-2193
-2183
-2203
-2246
-2276
-2261
-2239
-2225
-2217
-2217
-2217
-2244
-2267
-2247
-2237
-2224
-2201
-2209
-2255
-2292
-2289
-2274
-2216
-2196
-2182
-2191
-2226
-2283
-2307
-2287
-2262
-2212
-2194
-2177
-2206
-2259
-2299
-2291
-2268
-2241
-2205
-2194
-2203
-2237
-2279
-2297
-2266
-2241
-2212
-2207
-2214
-2244
-2267
-2241
-2209
-2212
-2210
-2221
-2242
-2286
-2295
-2254
-2215
-2171
-2179
-2202
-2239
-2290
-2312
-2282
-2242
-2203
-2181
-2195
-2218
-2257
-2295
-2299
-2256
-2213
-2195
-2189
-2204
-2232
-2253
-2260
-2255
-2236
-2227
-2219
-2227
-2271
-2268
-2249
-2238
-2228
-2212
-2209
-2237
-2284
-2292
-2264
-2231
-2178
-2166
-2186
-2247
-2279
-2306
-2281
-2239
-2206
-2169
-2162
-2206
-2270
-2286
-2289
-2273
-2232
-2197
-2184
-2204
-2241
-2285
-2283
-2264
-2245
-2211
-2208
-2225
-2256
-2266
-2244
-2210
-2213
-2207
-2211
-2236
-2277
-2283
-2254
-2222
-2181
-2164
-2180
-2222
-2282
-2309
-2281
-2245
-2218
-2187
-2181
-2197
-2247
-2294
-2291
-2267
-2221
-2193
-2187
-2204
-2232
-2260
-2260
-2228
-2210
-2216
-2212
-2221
-2244
-2261
-2235
-2218
-2214
-2201
-2216
-2239
-2281
-2289
-2256
-2224
-2184
-2164
-2177
-2224
-2296
-2329
-2294
-2239
-2184
-2153
-2159
-2201
-2271
-2297
-2286
-2255
-2237
-2214
-2189
-2205
-2257
-2274
-2265
-2214
-2122
-2032
-1972
-1895
-1823
-1771
-1705
-1644
-1601
-1547
-1512
-1507
-1563
-1563
-1542
-1482
-1449
-1459
-1519
-1603
-1703
-1769
-1792
-1809
-1835
-1892
-1965
-2071
-2193
-2271
-2297
-2258
-2224
-2198
-2197
-2205
-2251
-2269
-2266
-2263
-2241
-2226
-2219
-2224
-2251
-2257
-2259
-2219
-2210
-2215
-2230
-2247
-2282
-2297
-2272
-2228
-2187
-2173
-2191
-2231
-2276
-2306
-2297
-2264
-2300
-2424
-2580
-2717
-2362
-1556
-584
445
1473
2387
2447
1763
864
-76
-1014
-1885
-2320
-2378
-2336
-2275
-2262
-2266
-2248
-2222
-2209
-2203
-2214
-2242
-2286
-2299
-2256
-2221
-2193
-2184
-2195
-2235
-2285
-2321
-2301
-2247
-2201
-2190
-2179
-2205
-2256
-2296
-2302
-2262
-2238
-2194
-2173
-2201
-2240
-2256
-2274
-2251
-2233
-2216
-2216
-2232
-2266
-2269
-2267
-2222
-2219
-2204
-2222
-2247
-2286
-2293
-2266
-2226
-2189
-2182
-2176
-2223
-2272
-2261
-2224
-2148
-2072
-2024
-1980
-1972
-1994
-1986
-1932
-1859
-1774
-1711
-1664
-1659
-1655
-1657
-1617
-1577
-1525
-1488
-1472
-1462
-1454
-1457
-1419
-1364
-1334
-1321
-1342
-1367
-1392
-1402
-1379
-1331
-1319
-1305
-1342
-1402
-1491
-1538
-1526
-1530
-1539
-1522
-1545
-1612
-1725
-1808
-1837
-1852
-1863
-1883
-1909
-1986
-2078
-2149
-2200
-2217
-2224
-2215
-2209
-2227
-2252
-2264
-2252
-2228
-2205
-2203
-2206
-2247
-2286
-2300
-2262
-2227
-2192
-2169
-2185
-2241
-2290
-2309
-2299
-2244
-2201
-2184
-2177
-2204
-2259
-2279
-2271
-2273
-2237
-2198
-2177
-2211
-2251
-2270
-2271
-2246
-2232
-2206
-2206
-2223
-2237
-2262
-2246
-2218
-2202
-2201
-2211
-2242
-2291
-2297
-2266
-2237
-2199
-2173
-2183
-2237
-2273
-2297
-2278
-2223
-2182
-2172
-2165
-2207
-2255
-2284
-2290
-2262
-2223
-2191
-2182
-2207
-2252
-2268
-2269
-2239
-2242
-2221
-2213
-2237
-2267
-2279
-2252
-2222
-2202
-2201
-2217
-2247
-2296
-2282
-2255
-2228
-2195
-2166
-2180
-2219
-2277
-2289
-2288
-2244
-2206
-2171
-2171
-2200
-2252
-2286
-2279
-2256
-2229
-2189
-2184
-2196
-2246
-2280
-2265
-2242
-2223
-2214
-2212
-2233
-2250
-2259
-2236
-2201
-2197
-2202
-2206
-2234
-2276
-2284
-2261
-2213
-2184
-2181
-2176
-2227
-2284
-2305
-2284
-2242
-2215
-2193
-2181
-2194
-2241
-2289
-2288
-2274
-2241
-2197
-2194
-2209
-2240
-2260
-2254
-2241
-2228
-2215
-2211
-2234
-2257
-2260
-2241
-2204
-2189
-2188
-2207
-2247
-2297
-2296
-2262
-2216
-2188
-2171
-2191
-2231
-2283
-2304
-2297
-2258
-2218
-2170
-2156
-2183
-2254
-2293
-2279
-2260
-2227
-2197
-2186
-2196
-2243
-2265
-2261
-2247
-2225
-2198
-2202
-2222
-2264
-2277
-2249
-2226
-2187
-2197
-2220
-2256
-2291
-2291
-2253
-2217
-2186
-2174
-2182
-2232
-2276
-2302
-2293
-2247
-2212
-2171
-2180
-2196
-2242
-2281
-2281
-2250
-2236
-2214
-2199
-2205
-2238
-2254
-2257
-2247
-2226
-2198
-2201
-2226
-2261
-2253
-2237
-2219
-2212
-2203
-2214
-2245
-2284
-2274
-2257
-2228
-2181
-2162
-2181
-2217
-2282
-2314
-2284
-2233
-2202
-2171
-2169
-2211
-2267
-2287
-2269
-2250
-2239
-2201
-2184
-2192
-2224
-2256
-2264
-2244
-2215
-2198
-2221
-2239
-2255
-2264
-2249
-2216
-2191
-2207
-2211
-2243
-2294
-2291
-2265
-2219
-2187
-2170
-2181
-2221
-2285
-2314
-2293
-2251
-2199
-2171
-2152
-2184
-2227
-2279
-2284
-2240
-2216
-2195
-2193
-2198
-2235
-2269
-2271
-2248
-2225
-2214
-2213
-2222
-2244
-2259
-2237
-2206
-2203
-2190
-2198
-2225
-2277
-2285
-2252
-2210
-2179
-2164
-2189
-2220
-2277
-2300
-2275
-2231
-2187
-2177
-2176
-2194
-2253
-2294
-2275
-2247
-2228
-2201
-2182
-2199
-2238
-2276
-2266
-2233
-2226
-2216
-2218
-2217
-2246
-2257
-2234
-2204
-2216
-2202
-2201
-2232
-2277
-2297
-2266
-2212
-2182
-2167
-2169
-2206
-2279
-2324
-2294
-2248
-2201
-2178
-2165
-2198
-2261
-2282
-2285
-2276
-2233
-2201
-2192
-2205
-2245
-2269
-2263
-2226
-2217
-2207
-2216
-2231
-2249
-2261
-2263
-2227
-2192
-2187
-2202
-2231
-2279
-2294
-2267
-2221
-2199
-2169
-2176
-2224
-2282
-2304
-2291
-2252
-2214
-2166
-2167
-2207
-2249
-2291
-2287
-2277
-2247
-2202
-2172
-2209
-2235
-2262
-2256
-2229
-2197
-2201
-2207
-2226
-2259
-2259
-2232
-2198
-2182
-2188
-2196
-2243
-2290
-2281
-2263
-2227
-2180
-2167
-2192
-2226
-2278
-2307
-2287
-2249
-2192
-2170
-2164
-2191
-2246
-2284
-2298
-2263
-2227
-2205
-2177
-2202
-2229
-2252
-2242
-2227
-2216
-2199
-2205
-2237
-2271
-2275
-2252
-2209
-2187
-2184
-2185
-2235
-2284
-2307
-2277
-2228
-2179
-2157
-2182
-2215
-2267
-2309
-2298
-2256
-2194
-2169
-2170
-2195
-2249
-2289
-2286
-2262
-2227
-2206
-2189
-2202
-2234
-2259
-2247
-2239
-2208
-2197
-2206
-2227
-2254
-2264
-2252
-2207
-2192
-2181
-2194
-2245
-2284
-2301
-2270
-2209
-2186
-2169
-2174
-2202
-2262
-2309
-2292
-2250
-2212
-2176
-2173
-2186
-2233
-2242
-2167
-2069
-1975
-1866
-1769
-1717
-1699
-1680
-1634
-1563
-1502
-1478
-1467
-1489
-1534
-1529
-1521
-1497
-1510
-1547
-1614
-1696
-1771
-1850
-1908
-1936
-1971
-2031
-2110
-2193
-2261
-2304
-2296
-2246
-2209
-2175
-2169
-2199
-2249
-2283
-2269
-2266
-2234
-2206
-2186
-2209
-2233
-2249
-2249
-2224
-2217
-2202
-2211
-2232
-2266
-2278
-2254
-2216
-2209
-2199
-2209
-2237
-2274
-2305
-2366
-2454
-2582
-2680
-2298
-1519
-604
361
1380
2326
2461
1846
971
16
-976
-1894
-2363
-2404
-2344
-2254
-2200
-2200
-2241
-2268
-2254
-2225
-2227
-2221
-2213
-2239
-2266
-2269
-2239
-2206
-2192
-2195
-2214
-2246
-2287
-2299
-2281
-2227
-2186
-2154
-2171
-2202
-2265
-2296
-2299
-2250
-2188
-2169
-2167
-2187
-2248
-2282
-2279
-2253
-2227
-2198
-2184
-2213
-2245
-2248
-2246
-2224
-2214
-2215
-2216
-2229
-2254
-2257
-2240
-2200
-2182
-2157
-2179
-2194
-2218
-2186
-2124
-2057
-1992
-1926
-1880
-1874
-1889
-1868
-1835
-1742
-1677
-1615
-1588
-1586
-1602
-1605
-1577
-1521
-1466
-1429
-1386
-1395
-1404
-1426
-1400
-1353
-1318
-1307
-1321
-1347
-1360
-1383
-1380
-1351
-1347
-1374
-1401
-1457
-1537
-1582
-1589
-1568
-1561
-1574
-1628
-1704
-1817
-1906
-1929
-1929
-1932
-1954
-2002
-2074
-2162
-2238
-2269
-2253
-2237
-2210
-2184
-2198
-2234
-2271
-2256
-2226
-2222
-2219
-2210
-2231
-2259
-2262
-2232
-2215
-2191
-2172
-2182
-2225
-2287
-2303
-2262
-2232
-2201
-2176
-2174
-2211
-2277
-2299
-2291
-2255
-2201
-2166
-2170
-2204
-2246
-2272
-2282
-2255
-2217
-2194
-2184
-2198
-2234
-2252
-2241
-2235
-2227
-2206
-2214
-2229
-2259
-2274
-2257
-2214
-2178
-2174
-2187
-2228
-2281
-2306
-2276
-2217
-2178
-2167
-2163
-2191
-2247
-2290
-2297
-2257
-2211
-2175
-2176
-2188
-2237
-2277
-2282
-2258
-2228
-2201
-2182
-2202
-2241
-2256
-2230
-2225
-2212
-2192
-2202
-2227
-2252
-2264
-2248
-2205
-2183
-2189
-2196
-2231
-2271
-2297
-2278
-2220
-2181
-2174
-2183
-2222
-2271
-2304
-2280
-2242
-2214
-2171
-2163
-2191
-2229
-2280
-2267
-2251
-2243
-2212
-2186
-2207
-2241
-2264
-2251
-2222
-2211
-2199
-2201
-2225
-2255
-2262
-2236
-2213
-2187
-2195
-2204
-2246
-2283
-2291
-2265
-2219
-2191
-2160
-2162
-2213
-2270
-2301
-2295
-2262
-2216
-2179
-2174
-2190
-2239
-2284
-2282
-2252
-2227
-2198
-2186
-2197
-2239
-2257
-2247
-2233
-2212
-2207
-2197
-2232
-2267
-2269
-2250
-2204
-2171
-2174
-2190
-2219
-2271
-2299
-2277
-2237
-2212
-2177
-2180
-2225
-2283
-2300
-2296
-2259
-2207
-2181
-2166
-2185
-2243
-2287
-2272
-2256
-2229
-2214
-2202
-2209
-2240
-2250
-2254
-2234
-2218
-2210
-2210
-2232
-2276
-2286
-2252
-2207
-2192
-2187
-2199
-2232
-2275
-2297
-2281
-2233
-2179
-2161
-2166
-2216
-2262
-2299
-2295
-2247
-2199
-2179
-2161
-2181
-2237
-2274
-2286
-2262
-2232
-2206
-2191
-2202
-2224
-2243
-2241
-2237
-2233
-2202
-2205
-2244
-2273
-2282
-2251
-2224
-2198
-2194
-2209
-2243
-2280
-2292
-2264
-2213
-2179
-2151
-2177
-2211
-2261
-2296
-2286
-2252
-2218
-2181
-2162
-2196
-2241
-2277
-2276
-2265
-2241
-2217
-2191
-2202
-2236
-2263
-2246
-2230
-2226
-2222
-2216
-2228
-2257
-2271
-2246
-2212
-2190
-2184
-2202
-2246
-2280
-2297
-2273
-2219
-2193
-2175
