
-88910
-57979
-40685
-29882
-22733
-17796
-14226
-11563
-9449
-7846
-6591
-5614
-4866
-4327
-3992
-3783
-3567
-3367
-3171
-3008
-2902
-2844
-2828
-2806
-2754
-2687
-2602
-2539
-2506
-2504
-2519
-2523
-2507
-2484
-2459
-2437
-2432
-2452
-2472
-2475
-2455
-2397
-2367
-2374
-2403
-2429
-2470
-2488
-2470
-2432
-2379
-2352
-2362
-2407
-2459
-2484
-2431
-2333
-2223
-2104
-2016
-1961
-1944
-1921
-1871
-1822
-1737
-1677
-1663
-1660
-1688
-1698
-1687
-1673
-1671
-1711
-1762
-1807
-1869
-1932
-1967
-2018
-2073
-2141
-2219
-2356
-2441
-2471
-2449
-2390
-2351
-2322
-2321
-2376
-2439
-2460
-2464
-2416
-2374
-2342
-2336
-2359
-2407
-2432
-2432
-2421
-2406
-2380
-2356
-2367
-2407
-2435
-2414
-2381
-2368
-2357
-2376
-2404
-2429
-2440
-2497
-2594
-2747
-2848
-2467
-1677
-773
185
1241
2193
2306
1686
796
-176
-1176
-2098
-2547
-2578
-2482
-2384
-2345
-2357
-2399
-2453
-2451
-2427
-2402
-2372
-2352
-2379
-2426
-2431
-2430
-2404
-2378
-2373
-2384
-2411
-2424
-2419
-2396
-2363
-2349
-2348
-2351
-2404
-2444
-2461
-2439
-2396
-2355
-2336
-2334
-2367
-2428
-2464
-2451
-2412
-2377
-2342
-2323
-2343
-2391
-2436
-2435
-2416
-2385
-2375
-2369
-2378
-2379
-2383
-2347
-2302
-2251
-2211
-2195
-2178
-2149
-2103
-2038
-1961
-1883
-1852
-1845
-1861
-1859
-1845
-1784
-1717
-1637
-1589
-1580
-1599
-1651
-1664
-1626
-1563
-1507
-1473
-1456
-1482
-1543
-1581
-1561
-1532
-1519
-1502
-1516
-1576
-1621
-1658
-1669
-1687
-1715
-1754
-1792
-1851
-1914
-1966
-1991
-2004
-2029
-2071
-2117
-2221
-2312
-2376
-2407
-2416
-2388
-2366
-2384
-2454
-2507
-2521
-2514
-2482
-2442
-2414
-2393
-2419
-2469
-2507
-2503
-2504
-2468
-2455
-2446
-2467
-2487
-2486
-2476
-2460
-2428
-2413
-2401
-2424
-2456
-2444
-2426
-2396
-2361
-2352
-2370
-2398
-2444
-2470
-2446
-2387
-2344
-2314
-2313
-2346
-2403
-2446
-2421
-2383
-2357
-2317
-2298
-2321
-2360
-2395
-2407
-2386
-2358
-2327
-2311
-2328
-2369
-2386
-2379
-2354
-2340
-2326
-2333
-2360
-2383
-2383
-2366
-2317
-2306
-2303
-2301
-2355
-2408
-2414
-2394
-2357
-2301
-2290
-2281
-2319
-2389
-2426
-2416
-2368
-2325
-2294
-2278
-2306
-2352
-2389
-2379
-2355
-2332
-2312
-2301
-2314
-2347
-2352
-2352
-2321
-2307
-2308
-2313
-2341
-2372
-2385
-2353
-2317
-2274
-2270
-2285
-2337
-2379
-2391
-2381
-2342
-2289
-2264
-2261
-2319
-2379
-2407
-2407
-2367
-2301
-2284
-2264
-2279
-2337
-2375
-2381
-2372
-2336
-2304
-2297
-2311
-2337
-2350
-2334
-2330
-2303
-2299
-2317
-2340
-2374
-2381
-2361
-2314
-2276
-2270
-2293
-2338
-2388
-2415
-2382
-2344
-2289
-2266
-2274
-2310
-2365
-2401
-2391
-2369
-2324
-2278
-2274
-2297
-2346
-2382
-2380
-2356
-2325
-2309
-2296
-2320
-2349
-2363
-2356
-2337
-2321
-2322
-2316
-2343
-2371
-2379
-2352
-2306
-2281
-2279
-2292
-2337
-2389
-2412
-2393
-2339
-2283
-2278
-2273
-2302
-2368
-2402
-2391
-2365
-2322
-2281
-2267
-2283
-2334
-2386
-2386
-2370
-2339
-2305
-2304
-2325
-2334
-2350
-2344
-2337
-2317
-2315
-2317
-2329
-2354
-2370
-2348
-2312
-2297
-2290
-2309
-2336
-2379
-2391
-2372
-2327
-2289
-2269
-2258
-2308
-2361
-2399
-2396
-2364
-2318
-2292
-2276
-2306
-2354
-2386
-2386
-2371
-2336
-2315
-2298
-2310
-2337
-2378
-2363
-2312
-2294
-2305
-2316
-2347
-2370
-2376
-2351
-2303
-2281
-2272
-2292
-2331
-2393
-2413
-2397
-2354
-2301
-2271
-2272
-2305
-2362
-2408
-2400
-2362
-2329
-2302
-2275
-2295
-2346
-2387
-2385
-2350
-2329
-2309
-2305
-2332
-2356
-2361
-2340
-2334
-2322
-2324
-2286
-2236
-2200
-2135
-2027
-1928
-1818
-1771
-1755
-1751
-1746
-1736
-1691
-1637
-1601
-1572
-1592
-1642
-1714
-1788
-1829
-1847
-1865
-1867
-1911
-2017
-2146
-2261
-2343
-2407
-2427
-2419
-2404
-2424
-2467
-2484
-2484
-2459
-2438
-2419
-2411
-2428
-2450
-2467
-2431
-2384
-2354
-2340
-2348
-2399
-2441
-2464
-2451
-2404
-2349
-2326
-2307
-2349
-2406
-2460
-2466
-2434
-2369
-2327
-2381
-2533
-2739
-2925
-2656
-1852
-872
131
1126
2072
2303
1726
898
19
-899
-1824
-2401
-2551
-2525
-2474
-2421
-2361
-2323
-2304
-2316
-2360
-2410
-2446
-2414
-2371
-2331
-2304
-2304
-2335
-2384
-2427
-2419
-2404
-2369
-2321
-2291
-2312
-2361
-2410
-2407
-2393
-2383
-2352
-2337
-2351
-2383
-2413
-2391
-2367
-2359
-2351
-2344
-2365
-2397
-2414
-2401
-2372
-2335
-2333
-2345
-2392
-2454
-2471
-2441
-2402
-2364
-2321
-2297
-2309
-2351
-2369
-2327
-2258
-2187
-2116
-2063
-2021
-2004
-2014
-2014
-1974
-1912
-1866
-1817
-1802
-1807
-1812
-1794
-1749
-1693
-1664
-1656
-1669
-1672
-1654
-1631
-1592
-1548
-1528
-1526
-1557
-1611
-1681
-1702
-1666
-1639
-1626
-1634
-1696
-1788
-1867
-1928
-1941
-1942
-1943
-1971
-2015
-2093
-2174
-2246
-2269
-2283
-2290
-2315
-2350
-2407
-2436
-2450
-2441
-2410
-2392
-2396
-2411
-2428
-2437
-2438
-2407
-2362
-2344
-2336
-2372
-2421
-2449
-2450
-2406
-2362
-2317
-2312
-2327
-2374
-2421
-2448
-2434
-2390
-2361
-2324
-2317
-2345
-2402
-2428
-2401
-2377
-2361
-2341
-2343
-2351
-2381
-2384
-2373
-2362
-2342
-2341
-2366
-2390
-2416
-2410
-2357
-2329
-2312
-2320
-2336
-2376
-2419
-2437
-2397
-2346
-2312
-2298
-2313
-2352
-2409
-2434
-2409
-2379
-2327
-2299
-2300
-2335
-2377
-2397
-2391
-2372
-2352
-2322
-2319
-2354
-2397
-2398
-2366
-2347
-2341
-2342
-2349
-2386
-2420
-2411
-2374
-2329
-2306
-2307
-2336
-2380
-2425
-2427
-2386
-2334
-2299
-2287
-2310
-2347
-2400
-2426
-2418
-2371
-2332
-2307
-2291
-2332
-2385
-2413
-2409
-2375
-2354
-2345
-2335
-2342
-2369
-2372
-2359
-2349
-2347
-2346
-2354
-2383
-2420
-2408
-2368
-2340
-2314
-2317
-2338
-2389
-2424
-2421
-2384
-2336
-2304
-2283
-2305
-2366
-2421
-2447
-2437
-2386
-2337
-2314
-2318
-2352
-2400
-2415
-2409
-2391
-2376
-2368
-2354
-2378
-2420
-2443
-2417
-2404
-2397
-2407
-2424
-2459
-2484
-2484
-2462
-2417
-2387
-2404
-2432
-2476
-2521
-2540
-2503
-2457
-2441
-2416
-2433
-2497
-2546
-2583
-2565
-2536
-2496
-2480
-2473
-2507
-2541
-2568
-2571
-2561
-2536
-2521
-2518
-2515
-2557
-2580
-2550
-2525
-2501
-2482
-2483
-2501
-2505
-2512
-2464
-2413
-2392
-2362
-2376
-2422
-2462
-2481
-2454
-2399
-2347
-2334
-2324
-2364
-2420
-2443
-2439
-2402
-2362
-2340
-2320
-2334
-2379
-2414
-2410
-2397
-2372
-2343
-2322
-2346
-2372
-2386
-2369
-2343
-2326
-2326
-2341
-2376
-2395
-2397
-2372
-2332
-2294
-2290
-2305
-2343
-2406
-2437
-2402
-2354
-2309
-2269
-2267
-2327
-2381
-2415
-2406
-2372
-2343
-2319
-2287
-2314
-2361
-2399
-2384
-2355
-2332
-2325
-2316
-2328
-2357
-2361
-2336
-2316
-2316
-2329
-2333
-2354
-2382
-2389
-2356
-2318
-2305
-2297
-2306
-2341
-2389
-2412
-2396
-2345
-2300
-2285
-2277
-2324
-2382
-2403
-2349
-2249
-2129
-2017
-1939
-1891
-1872
-1864
-1807
-1734
-1672
-1602
-1592
-1603
-1631
-1639
-1612
-1605
-1594
-1623
-1683
-1764
-1846
-1891
-1929
-1964
-2015
-2094
-2178
-2315
-2396
-2433
-2414
-2347
-2314
-2291
-2301
-2332
-2392
-2439
-2436
-2405
-2349
-2317
-2306
-2339
-2367
-2400
-2409
-2397
-2376
-2365
-2346
-2358
-2402
-2424
-2397
-2374
-2353
-2351
-2362
-2396
-2419
-2451
-2510
-2604
-2746
-2829
-2409
-1619
-712
266
1309
2238
2291
1633
764
-199
-1197
-2109
-2531
-2569
-2486
-2374
-2332
-2337
-2383
-2417
-2422
-2398
-2382
-2361
-2355
-2367
-2388
-2396
-2382
-2369
-2360
-2342
-2355
-2394
-2433
-2434
-2398
-2359
-2337
-2334
-2332
-2388
-2441
-2450
-2438
-2391
-2328
-2309
-2317
-2369
-2419
-2448
-2442
-2408
-2371
-2337
-2348
-2361
-2392
-2427
-2410
-2392
-2379
-2364
-2358
-2367
-2389
-2371
-2326
-2277
-2247
-2212
-2181
-2169
-2154
-2112
-2028
-1927
-1854
-1828
-1804
-1826
-1841
-1834
-1765
-1689
-1602
-1557
-1541
-1556
-1584
-1599
-1565
-1522
-1472
-1409
-1397
-1427
-1459
-1498
-1475
-1466
-1449
-1456
-1481
-1516
-1563
-1597
-1594
-1613
-1629
-1657
-1703
-1786
-1856
-1891
-1912
-1920
-1939
-1984
-2033
-2128
-2223
-2312
-2344
-2340
-2342
-2328
-2332
-2394
-2457
-2486
-2496
-2462
-2420
-2369
-2341
-2363
-2402
-2431
-2434
-2408
-2374
-2359
-2358
-2352
-2383
-2394
-2381
-2363
-2344
-2337
-2352
-2366
-2397
-2398
-2389
-2344
-2311
-2305
-2317
-2356
-2407
-2428
-2415
-2361
-2318
-2306
-2301
-2342
-2410
-2453
-2467
-2456
-2416
-2381
-2375
-2392
-2454
-2497
-2503
-2490
-2477
-2452
-2435
-2445
-2463
-2491
-2497
-2477
-2457
-2441
-2457
-2507
-2543
-2567
-2549
-2506
-2471
-2469
-2531
-2612
-2615
-2568
-2539
-2502
-2473
-2474
-2518
-2562
-2580
-2563
-2539
-2515
-2487
-2500
-2554
-2592
-2598
-2586
-2549
-2524
-2555
-2572
-2570
-2550
-2553
-2588
-2617
-2595
-2564
-2521
-2477
-2466
-2479
-2513
-2568
-2571
-2518
-2471
-2426
-2412
-2406
-2436
-2481
-2536
-2538
-2496
-2452
-2417
-2415
-2438
-2479
-2497
-2479
-2462
-2438
-2425
-2419
-2437
-2464
-2463
-2438
-2422
-2403
-2396
-2408
-2457
-2482
-2468
-2424
-2384
-2354
-2361
-2376
-2426
-2481
-2502
-2471
-2419
-2371
-2337
-2348
-2401
-2456
-2483
-2479
-2453
-2411
-2384
-2363
-2390
-2445
-2486
-2480
-2459
-2454
-2427
-2415
-2426
-2449
-2465
-2443
-2414
-2401
-2390
-2393
-2441
-2472
-2473
-2421
-2391
-2356
-2339
-2369
-2416
-2467
-2484
-2451
-2396
-2346
-2324
-2346
-2375
-2431
-2469
-2462
-2429
-2397
-2372
-2346
-2368
-2411
-2443
-2434
-2411
-2394
-2382
-2362
-2393
-2420
-2429
-2402
-2390
-2366
-2360
-2383
-2402
-2439
-2446
-2416
-2377
-2345
-2329
-2351
-2406
-2458
-2484
-2456
-2417
-2359
-2331
-2332
-2367
-2441
-2465
-2451
-2408
-2384
-2351
-2355
-2375
-2412
-2443
-2452
-2452
-2409
-2394
-2391
-2406
-2449
-2469
-2454
-2441
-2436
-2421
-2425
-2460
-2485
-2483
-2447
-2392
-2366
-2345
-2361
-2401
-2458
-2477
-2446
-2401
-2345
-2320
-2324
-2371
-2439
-2470
-2457
-2417
-2374
-2352
-2348
-2356
-2400
-2437
-2431
-2419
-2407
-2411
-2399
-2423
-2451
-2451
-2436
-2407
-2397
-2386
-2361
-2313
-2274
-2197
-2082
-1954
-1858
-1801
-1783
-1777
-1785
-1766
-1726
-1668
-1612
-1583
-1587
-1638
-1719
-1772
-1811
-1837
-1857
-1867
-1909
-2016
-2130
-2233
-2327
-2384
-2419
-2417
-2417
-2431
-2459
-2463
-2446
-2420
-2392
-2387
-2390
-2412
-2435
-2432
-2411
-2384
-2326
-2313
-2326
-2364
-2428
-2444
-2421
-2362
-2318
-2293
-2280
-2321
-2384
-2419
-2409
-2370
-2333
-2303
-2377
-2537
-2750
-2880
-2487
-1636
-651
349
1364
2243
2274
1625
781
-113
-1033
-1925
-2393
-2495
-2501
-2434
-2352
-2300
-2276
-2276
-2293
-2321
-2376
-2393
-2386
-2341
-2288
-2256
-2249
-2282
-2336
-2379
-2381
-2355
-2307
-2272
-2271
-2292
-2335
-2357
-2353
-2337
-2336
-2311
-2310
-2325
-2357
-2356
-2330
-2304
-2295
-2289
-2309
-2333
-2375
-2375
-2342
-2296
-2258
-2256
-2276
-2304
-2371
-2397
-2383
-2322
-2255
-2199
-2169
-2174
-2206
-2225
-2189
-2102
-2010
-1925
-1892
-1861
-1854
-1854
-1816
-1776
-1729
-1679
-1652
-1635
-1630
-1644
-1601
-1522
-1490
-1463
-1466
-1479
-1494
-1485
-1449
-1397
-1359
-1351
-1380
-1423
-1484
-1530
-1527
-1507
-1477
-1469
-1489
-1557
-1662
-1720
-1752
-1760
-1768
-1782
-1811
-1873
-1954
-2034
-2080
-2106
-2137
-2156
-2214
-2263
-2308
-2327
-2308
-2277
-2282
-2295
-2302
-2325
-2353
-2364
-2332
-2294
-2246
-2229
-2256
-2313
-2362
-2382
-2377
-2321
-2277
-2239
-2237
-2271
-2327
-2372
-2371
-2334
-2294
-2246
-2256
-2276
-2304
-2336
-2324
-2304
-2302
-2287
-2282
-2291
-2334
-2341
-2308
-2283
-2264
-2266
-2274
-2307
-2357
-2372
-2343
-2291
-2258
-2239
-2248
-2305
-2355
-2384
-2369
-2311
-2258
-2224
-2223
-2259
-2320
-2363
-2359
-2326
-2299
-2268
-2241
-2261
-2310
-2331
-2337
-2311
-2278
-2275
-2272
-2294
-2326
-2346
-2320
-2284
-2271
-2266
-2288
-2310
-2337
-2352
-2337
-2296
-2250
-2246
-2271
-2311
-2354
-2367
-2351
-2300
-2251
-2220
-2230
-2265
-2324
-2361
-2359
-2324
-2287
-2266
-2253
-2241
-2299
-2324
-2324
-2304
-2292
-2277
-2267
-2285
-2322
-2321
-2306
-2290
-2276
-2261
-2267
-2312
-2339
-2359
-2337
-2286
-2251
-2244
-2256
-2294
-2355
-2371
-2352
-2309
-2273
-2246
-2232
-2252
-2309
-2361
-2362
-2341
-2304
-2274
-2245
-2256
-2288
-2313
-2332
-2312
-2277
-2286
-2276
-2269
-2314
-2332
-2302
-2272
-2270
-2261
-2276
-2302
-2352
-2357
-2318
-2281
-2256
-2239
-2244
-2289
-2346
-2372
-2372
-2319
-2260
-2231
-2233
-2262
-2314
-2366
-2362
-2323
-2286
-2260
-2249
-2272
-2291
-2319
-2326
-2309
-2298
-2286
-2281
-2289
-2321
-2332
-2306
-2277
-2253
-2249
-2284
-2302
-2338
-2348
-2321
-2284
-2246
-2222
-2233
-2292
-2356
-2375
-2354
-2303
-2265
-2232
-2227
-2261
-2327
-2354
-2350
-2321
-2298
-2268
-2246
-2254
-2302
-2323
-2326
-2311
-2291
-2272
-2280
-2286
-2317
-2324
-2313
-2277
-2264
-2271
-2270
-2302
-2337
-2350
-2331
-2288
-2246
-2229
-2252
-2283
-2342
-2363
-2355
-2311
-2271
-2228
-2232
-2267
-2305
-2340
-2352
-2324
-2296
-2258
-2243
-2262
-2298
-2325
-2335
-2309
-2282
-2265
-2272
-2283
-2300
-2324
-2311
-2271
-2251
-2255
-2272
-2304
-2335
-2341
-2314
-2269
-2243
-2222
-2244
-2296
-2351
-2368
-2344
-2305
-2258
-2231
-2235
-2267
-2307
-2357
-2317
-2218
-2107
-1991
-1906
-1844
-1819
-1797
-1749
-1685
-1627
-1567
-1553
-1569
-1582
-1586
-1565
-1538
-1537
-1586
-1629
-1704
-1799
-1847
-1884
-1912
-1967
-2024
-2102
-2222
-2314
-2374
-2367
-2319
-2277
-2245
-2227
-2251
-2319
-2343
-2329
-2325
-2282
-2252
-2245
-2256
-2281
-2318
-2307
-2301
-2294
-2284
-2287
-2292
-2314
-2311
-2296
-2272
-2264
-2252
-2254
-2289
-2342
-2358
-2407
-2504
-2656
-2749
-2366
-1577
-679
279
1291
2260
2409
1787
908
-54
-1040
-1976
-2435
-2488
-2404
-2311
-2249
-2257
-2306
-2331
-2330
-2306
-2272
-2259
-2261
-2286
-2315
-2327
-2311
-2265
-2267
-2259
-2265
-2297
-2339
-2359
-2329
-2276
-2254
-2232
-2238
-2275
-2335
-2384
-2359
-2305
-2271
-2240
-2224
-2270
-2311
-2330
-2341
-2321
-2292
-2248
-2225
-2254
-2296
-2320
-2334
-2312
-2286
-2282
-2282
-2280
-2294
-2281
-2232
-2172
-2119
-2082
-2064
-2069
-2073
-2051
-1955
-1856
-1780
-1731
-1710
-1724
-1762
-1749
-1695
-1626
-1558
-1500
-1474
-1470
-1500
-1530
-1519
-1471
-1415
-1377
-1342
-1354
-1405
-1428
-1414
-1411
-1398
-1404
-1422
-1467
-1512
-1536
-1540
-1541
-1572
-1611
-1654
-1701
-1777
-1844
-1884
-1876
-1876
-1904
-1980
-2053
-2166
-2238
-2281
-2274
-2257
-2226
-2224
-2245
-2303
-2347
-2346
-2322
-2279
-2241
-2233
-2257
-2296
-2321
-2333
-2299
-2286
-2280
-2278
-2286
-2313
-2324
-2309
-2273
-2249
-2252
-2267
-2301
-2340
-2351
-2319
-2267
-2236
-2219
-2221
-2272
-2338
-2379
-2361
-2302
-2259
-2224
-2223
-2257
-2302
-2339
-2351
-2299
-2276
-2252
-2234
-2258
-2302
-2321
-2322
-2296
-2284
-2272
-2275
-2301
-2331
-2335
-2312
-2276
-2258
-2260
-2258
-2300
-2330
-2353
-2322
-2286
-2253
-2229
-2230
-2266
-2327
-2371
-2359
-2304
-2266
-2235
-2221
-2256
-2308
-2337
-2341
-2323
-2284
-2262
-2240
-2262
-2301
-2330
-2336
-2305
-2286
-2262
-2264
-2281
-2302
-2337
-2309
-2267
-2257
-2250
-2252
-2292
-2332
-2344
-2327
-2265
-2241
-2226
-2226
-2269
-2328
-2367
-2350
-2316
-2271
-2222
-2219
-2248
-2307
-2349
-2339
-2302
-2285
-2260
-2243
-2265
-2281
-2311
-2315
-2278
-2267
-2266
-2271
-2279
-2311
-2325
-2309
-2258
-2241
-2237
-2257
-2292
-2327
-2336
-2320
-2290
-2234
-2209
-2231
-2267
-2341
-2357
-2344
-2310
-2265
-2226
-2206
-2241
-2297
-2329
-2331
-2310
-2281
-2242
-2231
-2251
-2286
-2312
-2327
-2306
-2282
-2264
-2261
-2276
-2299
-2308
-2301
-2253
-2233
-2227
-2241
-2277
-2329
-2348
-2320
-2278
-2237
-2210
-2225
-2267
-2329
-2368
-2347
-2311
-2266
-2229
-2219
-2247
-2298
-2334
-2339
-2317
-2282
-2247
-2225
-2250
-2282
-2317
-2314
-2290
-2282
-2266
-2266
-2272
-2299
-2328
-2294
-2268
-2236
-2232
-2252
-2290
-2351
-2359
-2324
-2264
-2228
-2206
-2221
-2281
-2332
-2349
-2360
-2287
-2251
-2226
-2211
-2237
-2296
-2333
-2335
-2306
-2272
-2254
-2246
-2246
-2270
-2313
-2306
-2297
-2275
-2258
-2272
-2281
-2310
-2326
-2304
-2281
-2245
-2227
-2255
-2303
-2344
-2343
-2319
-2282
-2238
-2222
-2228
-2255
-2327
-2358
-2335
-2296
-2252
-2239
-2219
-2239
-2294
-2332
-2331
-2304
-2281
-2261
-2247
-2254
-2289
-2303
-2306
-2287
-2277
-2267
-2263
-2279
-2319
-2332
-2301
-2262
-2252
-2242
-2209
-2184
-2157
-2099
-1984
-1854
-1749
-1692
-1651
-1642
-1649
-1653
-1617
-1572
-1524
-1481
-1487
-1522
-1579
-1648
-1694
-1711
-1724
-1747
-1789
-1882
-2001
-2101
-2168
-2235
-2251
-2249
-2242
-2268
-2308
-2320
-2301
-2269
-2261
-2246
-2256
-2293
-2338
-2345
-2316
-2257
-2231
-2217
-2231
-2255
-2319
-2363
-2341
-2291
-2262
-2220
-2211
-2239
-2288
-2334
-2336
-2307
-2278
-2264
-2314
-2468
-2681
-2822
-2435
-1581
-599
382
1366
2242
2314
1680
854
-19
-946
-1851
-2326
-2432
-2438
-2397
-2348
-2289
-2246
-2221
-2226
-2248
-2314
-2346
-2357
-2301
-2256
-2219
-2222
-2252
-2302
-2331
-2314
-2301
-2276
-2257
-2241
-2257
-2291
-2300
-2306
-2279
-2266
-2261
-2274
-2285
-2307
-2316
-2306
-2263
-2247
-2239
-2243
-2288
-2340
-2344
-2317
-2272
-2238
-2210
-2228
-2276
-2321
-2360
-2359
-2312
-2249
-2184
-2141
-2134
-2172
-2179
-2143
-2076
-2016
-1939
-1881
-1854
-1831
-1814
-1780
-1730
-1684
-1648
-1619
-1606
-1605
-1590
-1551
-1475
-1439
-1419
-1412
-1436
-1456
-1459
-1431
-1386
-1331
-1312
-1346
-1387
-1444
-1492
-1496
-1477
-1451
-1439
-1463
-1507
-1594
-1678
-1722
-1732
-1732
-1742
-1777
-1852
-1927
-1985
-2033
-2064
-2092
-2132
-2192
-2245
-2300
-2317
-2292
-2263
-2244
-2229
-2243
-2284
-2330
-2357
-2323
-2284
-2227
-2212
-2224
-2266
-2332
-2360
-2341
-2298
-2244
-2230
-2214
-2239
-2284
-2334
-2328
-2299
-2277
-2247
-2222
-2254
-2271
-2297
-2301
-2289
-2274
-2264
-2261
-2282
-2302
-2312
-2294
-2254
-2238
-2240
-2256
-2290
-2329
-2335
-2313
-2270
-2239
-2212
-2219
-2260
-2332
-2371
-2337
-2291
-2261
-2230
-2217
-2241
-2287
-2333
-2332
-2315
-2280
-2258
-2245
-2271
-2308
-2309
-2310
-2292
-2277
-2256
-2257
-2288
-2324
-2313
-2290
-2246
-2235
-2237
-2254
-2290
-2333
-2350
-2329
-2272
-2234
-2218
-2229
-2248
-2304
-2354
-2352
-2306
-2256
-2215
-2213
-2226
-2278
-2326
-2324
-2294
-2267
-2252
-2242
-2256
-2292
-2301
-2292
-2286
-2271
-2271
-2261
-2282
-2304
-2306
-2308
-2281
-2240
-2220
-2247
-2284
-2335
-2359
-2326
-2272
-2227
-2213
-2224
-2262
-2317
-2348
-2344
-2296
-2252
-2217
-2207
-2232
-2292
-2326
-2319
-2309
-2277
-2252
-2239
-2252
-2287
-2311
-2306
-2285
-2271
-2265
-2279
-2294
-2307
-2314
-2287
-2263
-2231
-2237
-2256
-2284
-2341
-2352
-2330
-2268
-2225
-2204
-2214
-2264
-2313
-2346
-2339
-2307
-2272
-2229
-2222
-2256
-2290
-2336
-2321
-2298
-2282
-2257
-2229
-2250
-2292
-2311
-2316
-2296
-2271
-2263
-2262
-2297
-2329
-2329
-2307
-2262
-2232
-2231
-2252
-2286
-2334
-2351
-2310
-2263
-2231
-2231
-2234
-2271
-2314
-2341
-2336
-2319
-2262
-2221
-2208
-2241
-2291
-2332
-2334
-2307
-2282
-2251
-2237
-2254
-2281
-2291
-2301
-2296
-2277
-2259
-2256
-2284
-2304
-2317
-2289
-2257
-2231
-2235
-2242
-2281
-2315
-2353
-2321
-2279
-2232
-2206
-2214
-2272
-2321
-2349
-2344
-2307
-2270
-2224
-2217
-2235
-2285
-2317
-2339
-2315
-2276
-2255
-2235
-2248
-2292
-2315
-2299
-2278
-2271
-2266
-2262
-2281
-2318
-2337
-2315
-2265
-2239
-2244
-2254
-2286
-2327
-2347
-2316
-2266
-2232
-2219
-2226
-2262
-2319
-2359
-2349
-2317
-2267
-2236
-2237
-2238
-2288
-2327
-2294
-2211
-2104
-2001
-1899
-1839
-1821
-1780
-1730
-1658
-1594
-1542
-1524
-1555
-1568
-1570
-1563
-1517
-1511
-1560
-1611
-1686
-1777
-1847
-1864
-1894
-1945
-1999
-2076
-2187
-2276
-2345
-2352
-2308
-2266
-2232
-2229
-2246
-2290
-2325
-2326
-2314
-2279
-2252
-2236
-2254
-2293
-2306
-2294
-2274
-2243
-2256
-2259
-2304
-2337
-2326
-2300
-2267
-2242
-2234
-2241
-2284
-2327
-2356
-2411
-2521
-2627
-2711
-2351
-1585
-691
276
1286
2247
2419
1810
959
11
-977
-1921
-2415
-2466
-2397
-2299
-2242
-2246
-2278
-2308
-2301
-2271
-2257
-2247
-2256
-2291
-2314
-2321
-2294
-2257
-2242
-2241
-2239
-2277
-2325
-2347
-2322
-2261
-2217
-2199
-2214
-2256
-2315
-2350
-2337
-2322
-2273
-2231
-2205
-2224
-2284
-2327
-2322
-2300
-2287
-2267
-2247
-2246
-2284
-2307
-2309
-2289
-2270
-2261
-2260
-2291
-2306
-2283
-2234
-2163
-2111
-2070
-2054
-2042
-2054
-2029
-1958
-1868
-1783
-1714
-1694
-1710
-1719
-1726
-1702
-1633
-1577
-1506
-1466
-1465
-1484
-1507
-1500
-1466
-1419
-1377
-1352
-1372
-1391
-1394
-1395
-1384
-1389
-1404
-1416
-1456
-1516
-1541
-1551
-1543
-1529
-1584
-1630
-1702
-1786
-1844
-1871
-1872
-1865
-1882
-1945
-2037
-2142
-2225
-2288
-2274
-2252
-2224
-2201
-2233
-2279
-2324
-2334
-2298
-2276
-2256
-2250
-2257
-2282
-2293
-2293
-2283
-2268
-2263
-2257
-2289
-2310
-2330
-2312
-2274
-2228
-2228
-2237
-2269
-2326
-2353
-2325
-2268
-2231
-2221
-2223
-2244
-2302
-2336
-2341
-2320
-2277
-2231
-2207
-2241
-2287
-2324
-2321
-2314
-2292
-2271
-2231
-2254
-2291
-2306
-2302
-2281
-2262
-2262
-2281
-2278
-2300
-2330
-2302
-2262
-2219
-2229
-2230
-2274
-2329
-2354
-2330
-2285
-2239
-2206
-2209
-2248
-2306
-2351
-2352
-2297
-2251
-2222
-2209
-2239
-2286
-2327
-2331
-2296
-2285
-2254
-2246
-2260
-2294
-2303
-2291
-2266
-2256
-2253
-2259
-2280
-2316
-2331
-2309
-2256
-2239
-2230
-2249
-2283
-2322
-2347
-2339
-2289
-2238
-2207
-2202
-2254
-2310
-2350
-2339
-2296
-2260
-2240
-2217
-2234
-2294
-2328
-2329
-2314
-2292
-2251
-2234
-2259
-2279
-2320
-2297
-2275
-2258
-2266
-2267
-2296
-2321
-2319
-2296
-2250
-2227
-2227
-2242
-2269
-2316
-2354
-2337
-2281
-2243
-2198
-2204
-2253
-2319
-2334
-2333
-2320
-2273
-2232
-2223
-2247
-2301
-2331
-2321
-2306
-2290
-2252
-2237
-2251
-2291
-2315
-2300
-2274
-2264
-2262
-2263
-2297
-2309
-2305
-2288
-2252
-2252
-2236
-2243
-2285
-2344
-2372
-2336
-2271
-2221
-2216
-2224
-2272
-2321
-2346
-2347
-2325
-2279
-2237
-2220
-2234
-2275
-2311
-2335
-2304
-2281
-2256
-2242
-2241
-2269
-2306
-2286
-2269
-2264
-2259
-2251
-2273
-2306
-2323
-2301
-2269
-2241
-2221
-2232
-2281
-2329
-2348
-2333
-2279
-2244
-2219
-2210
-2260
-2310
-2351
-2344
-2298
-2256
-2235
-2219
-2241
-2291
-2326
-2325
-2309
-2277
-2246
-2242
-2249
-2277
-2299
-2294
-2266
-2260
-2262
-2260
-2282
-2331
-2326
-2304
-2252
-2218
-2230
-2238
-2281
-2330
-2352
-2332
-2278
-2242
-2223
-2202
-2251
-2299
-2331
-2345
-2312
-2285
-2241
-2219
-2248
-2285
-2309
-2326
-2322
-2282
-2272
-2246
-2259
-2286
-2307
-2295
-2282
-2257
-2234
-2256
-2284
-2307
-2324
-2295
-2267
-2249
-2211
-2193
-2182
-2152
-2101
-1982
-1846
-1751
-1681
-1652
-1644
-1641
-1642
-1597
-1576
-1535
-1496
-1470
-1502
-1573
-1634
-1682
-1709
-1713
-1749
-1807
-1891
-2004
-2088
-2159
-2200
-2230
-2252
-2257
-2290
-2330
-2340
-2307
-2262
-2226
-2225
-2246
-2273
-2334
-2352
-2332
-2284
-2221
-2201
-2208
-2244
-2304
-2354
-2339
-2301
-2262
-2224
-2210
-2232
-2293
-2317
-2316
-2297
-2274
-2249
-2323
-2499
-2687
-2822
-2457
-1614
-642
355
1337
2206
2332
1711
888
-2
-913
-1793
-2307
-2431
-2457
-2427
-2351
-2287
-2236
-2204
-2219
-2262
-2314
-2351
-2345
-2301
-2252
-2240
-2206
-2225
-2270
-2305
-2319
-2304
-2288
-2262
-2252
-2273
-2291
-2304
-2291
-2269
-2251
-2245
-2253
-2279
-2312
-2339
-2301
-2254
-2212
-2224
-2236
-2271
-2329
-2359
-2323
-2290
-2239
-2220
-2219
-2245
-2308
-2339
-2351
-2322
-2263
-2198
-2156
-2149
-2157
-2155
-2121
-2067
-1997
-1939
-1861
-1842
-1834
-1820
-1769
-1719
-1668
-1644
-1626
-1613
-1619
-1616
-1548
-1465
-1414
-1396
-1398
-1429
-1450
-1476
-1446
-1390
-1340
-1303
-1317
-1348
-1410
-1486
-1497
-1472
-1458
-1454
-1463
-1512
-1588
-1659
-1706
-1713
-1719
-1754
-1785
-1842
-1917
-1987
-2017
-2046
-2074
-2116
-2167
-2242
-2301
-2325
-2303
-2266
-2239
-2219
-2221
-2257
-2326
-2353
-2324
-2277
-2229
-2216
-2219
-2251
-2317
-2360
-2349
-2306
-2254
-2222
-2208
-2240
-2272
-2308
-2311
-2296
-2270
-2261
-2243
-2256
-2283
-2296
-2268
-2264
-2256
-2234
-2238
-2269
-2316
-2319
-2299
-2259
-2216
-2211
-2232
-2279
-2322
-2347
-2341
-2289
-2241
-2204
-2201
-2249
-2312
-2339
-2327
-2312
-2281
-2252
-2224
-2231
-2270
-2311
-2299
-2284
-2277
-2271
-2259
-2265
-2288
-2300
-2285
-2261
-2249
-2246
-2256
-2282
-2316
-2329
-2299
-2258
-2238
-2210
-2214
-2274
-2335
-2361
-2339
-2291
-2235
-2212
-2211
-2234
-2296
-2332
-2330
-2289
-2254
-2226
-2216
-2233
-2285
-2312
-2306
-2289
-2278
-2269
-2254
-2265
-2289
-2301
-2304
-2271
-2245
-2242
-2254
-2283
-2319
-2329
-2301
-2252
-2235
-2213
-2214
-2264
-2321
-2346
-2332
-2271
-2228
-2206
-2206
-2239
-2287
-2324
-2337
-2313
-2260
-2230
-2220
-2226
-2259
-2306
-2322
-2307
-2281
-2261
-2250
-2260
-2281
-2295
-2285
-2271
-2261
-2257
-2252
-2285
-2317
-2327
-2300
-2256
-2211
-2201
-2226
-2267
-2316
-2353
-2332
-2277
-2236
-2211
-2210
-2239
-2301
-2334
-2339
-2309
-2271
-2235
-2213
-2236
-2292
-2311
-2320
-2296
-2273
-2253
-2251
-2268
-2289
-2319
-2304
-2273
-2252
-2247
-2254
-2287
-2324
-2325
-2297
-2264
-2230
-2202
-2221
-2269
-2324
-2352
-2337
-2278
-2232
-2204
-2197
-2253
-2319
-2347
-2344
-2301
-2271
-2230
-2222
-2233
-2279
-2316
-2322
-2307
-2272
-2268
-2254
-2269
-2295
-2302
-2290
-2267
-2242
-2241
-2258
-2284
-2304
-2314
-2303
-2268
-2222
-2209
-2217
-2250
-2319
-2349
-2342
-2289
-2242
-2222
-2194
-2226
-2284
-2341
-2352
-2311
-2273
-2242
-2228
-2226
-2256
-2301
-2294
-2295
-2274
-2244
-2254
-2251
-2272
-2293
-2272
-2256
-2255
-2247
-2247
-2269
-2317
-2312
-2286
-2261
-2220
-2212
-2230
-2264
-2326
-2352
-2338
-2298
-2239
-2204
-2202
-2233
-2301
-2324
-2329
-2312
-2276
-2237
-2231
-2249
-2290
-2308
-2272
-2180
-2098
-1999
-1914
-1851
-1811
-1781
-1719
-1642
-1591
-1537
-1518
-1555
-1594
-1585
-1559
-1513
-1487
-1528
-1594
-1677
-1763
-1841
-1891
-1914
-1944
-1991
-2063
-2181
-2286
-2339
-2341
-2291
-2264
-2236
-2205
-2230
-2277
-2302
-2299
-2290
-2269
-2251
-2248
-2252
-2286
-2306
-2297
-2269
-2256
-2243
-2249
-2281
-2324
-2327
-2300
-2254
-2225
-2229
-2229
-2271
-2320
-2368
-2434
-2513
-2624
-2734
-2369
-1594
-706
230
1234
2207
2426
1825
986
54
-923
-1857
-2372
-2453
-2395
-2319
-2261
-2258
-2302
-2312
-2289
-2260
-2236
-2230
-2235
-2274
-2314
-2334
-2306
-2273
-2224
-2208
-2229
-2264
-2312
-2344
-2345
-2305
-2254
-2212
-2206
-2225
-2302
-2347
-2334
-2303
-2277
-2249
-2227
-2231
-2274
-2301
-2317
-2299
-2279
-2260
-2254
-2266
-2292
-2301
-2277
-2259
-2231
-2241
-2254
-2275
-2308
-2283
-2229
-2161
-2107
-2052
-2032
-2023
-2047
-2043
-1966
-1878
-1777
-1726
-1686
-1691
-1717
-1718
-1711
-1647
-1582
-1527
-1483
-1458
-1481
-1485
-1471
-1440
-1391
-1376
-1369
-1382
-1406
-1406
-1397
-1387
-1372
-1380
-1401
-1461
-1522
-1558
-1555
-1527
-1536
-1557
-1594
-1664
-1766
-1856
-1887
-1876
-1877
-1884
-1924
-1998
-2112
-2200
-2247
-2286
-2264
-2236
-2218
-2225
-2278
-2300
-2306
-2305
-2290
-2274
-2251
-2271
-2302
-2297
-2286
-2259
-2247
-2251
-2248
-2267
-2325
-2341
-2293
-2249
-2232
-2202
-2220
-2252
-2311
-2346
-2347
-2287
-2234
-2205
-2199
-2222
-2280
-2332
-2333
-2312
-2274
-2233
-2215
-2248
-2273
-2306
-2306
-2282
-2266
-2248
-2235
-2271
-2292
-2305
-2291
-2264
-2239
-2239
-2252
-2288
-2329
-2336
-2307
-2267
-2222
-2207
-2219
-2267
-2323
-2357
-2334
-2296
-2239
-2194
-2196
-2231
-2296
-2316
-2329
-2299
-2269
-2239
-2217
-2238
-2265
-2296
-2296
-2279
-2272
-2266
-2250
-2254
-2289
-2301
-2296
-2267
-2249
-2241
-2255
-2285
-2319
-2338
-2316
-2258
-2227
-2201
-2218
-2256
-2311
-2331
-2332
-2296
-2249
-2210
-2208
-2235
-2292
-2328
-2329
-2301
-2265
-2231
-2229
-2231
-2279
-2315
-2293
-2286
-2251
-2244
-2261
-2255
-2276
-2304
-2291
-2253
-2242
-2220
-2237
-2286
-2315
-2323
-2297
-2253
-2226
-2203
-2201
-2247
-2318
-2356
-2337
-2279
-2249
-2206
-2189
-2229
-2300
-2337
-2338
-2304
-2272
-2238
-2217
-2232
-2276
-2292
-2310
-2283
-2259
-2250
-2251
-2261
-2286
-2301
-2284
-2264
-2243
-2247
-2255
-2272
-2329
-2321
-2291
-2262
-2217
-2198
-2215
-2250
-2304
-2346
-2334
-2304
-2252
-2221
-2202
-2229
-2281
-2337
-2342
-2297
-2256
-2227
-2221
-2247
-2266
-2298
-2307
-2286
-2263
-2242
-2252
-2277
-2292
-2306
-2277
-2241
-2231
-2241
-2251
-2287
-2319
-2324
-2307
-2277
-2233
-2203
-2212
-2258
-2297
-2331
-2329
-2279
-2231
-2207
-2209
-2225
-2277
-2326
-2346
-2307
-2266
-2241
-2223
-2243
-2272
-2310
-2312
-2280
-2261
-2254
-2249
-2268
-2294
-2301
-2295
-2255
-2232
-2236
-2254
-2268
-2316
-2344
-2317
-2255
-2217
-2215
-2216
-2254
-2309
-2359
-2344
-2300
-2252
-2216
-2208
-2234
-2296
-2332
-2337
-2314
-2275
-2234
-2216
-2237
-2267
-2294
-2299
-2277
-2262
-2252
-2266
-2269
-2276
-2301
-2309
-2260
-2232
-2241
-2255
-2271
-2320
-2337
-2305
-2253
-2234
-2201
-2171
-2149
-2139
-2094
-1997
-1871
-1767
-1692
-1642
-1631
-1642
-1622
-1597
-1567
-1545
-1500
-1501
-1515
-1549
-1612
-1667