
-94903
-61441
-42724
-31007
-23308
-18012
-14281
-11561
-9482
-7867
-6604
-5637
-4894
-4311
-3977
-3799
-3619
-3424
-3252
-3098
-2967
-2876
-2811
-2771
-2713
-2625
-2562
-2527
-2497
-2483
-2501
-2524
-2491
-2441
-2401
-2358
-2338
-2366
-2411
-2451
-2467
-2426
-2372
-2330
-2284
-2287
-2342
-2426
-2557
-2692
-2829
-2787
-2161
-1262
-309
646
1632
2364
2138
1393
491
-439
-1401
-2223
-2518
-2507
-2412
-2348
-2332
-2332
-2361
-2398
-2406
-2353
-2303
-2295
-2291
-2306
-2370
-2419
-2429
-2385
-2336
-2291
-2258
-2269
-2326
-2372
-2392
-2387
-2369
-2315
-2279
-2285
-2305
-2344
-2374
-2359
-2336
-2320
-2309
-2334
-2342
-2352
-2358
-2339
-2313
-2295
-2294
-2313
-2346
-2371
-2343
-2279
-2210
-2161
-2122
-2122
-2136
-2126
-2103
-2029
-1936
-1843
-1782
-1768
-1787
-1793
-1787
-1749
-1682
-1624
-1581
-1561
-1552
-1556
-1562
-1532
-1486
-1445
-1434
-1424
-1434
-1466
-1464
-1427
-1402
-1402
-1431
-1471
-1506
-1547
-1574
-1566
-1546
-1569
-1587
-1649
-1726
-1812
-1867
-1889
-1893
-1877
-1889
-1951
-2045
-2144
-2222
-2247
-2257
-2274
-2264
-2273
-2305
-2333
-2349
-2353
-2329
-2316
-2302
-2294
-2313
-2349
-2356
-2326
-2297
-2299
-2307
-2304
-2344
-2370
-2356
-2326
-2282
-2252
-2250
-2274
-2331
-2373
-2378
-2337
-2306
-2268
-2234
-2246
-2290
-2346
-2376
-2362
-2341
-2285
-2249
-2247
-2271
-2307
-2326
-2328
-2313
-2299
-2279
-2292
-2316
-2332
-2336
-2309
-2289
-2271
-2269
-2304
-2343
-2360
-2354
-2321
-2280
-2257
-2255
-2276
-2317
-2366
-2375
-2345
-2298
-2260
-2252
-2244
-2284
-2337
-2361
-2359
-2322
-2277
-2266
-2245
-2282
-2326
-2351
-2326
-2316
-2308
-2287
-2270
-2294
-2332
-2328
-2310
-2297
-2271
-2278
-2299
-2331
-2362
-2354
-2314
-2253
-2230
-2236
-2250
-2298
-2358
-2373
-2334
-2288
-2247
-2234
-2252
-2293
-2341
-2369
-2357
-2317
-2272
-2248
-2240
-2261
-2300
-2334
-2310
-2297
-2289
-2284
-2283
-2299
-2327
-2326
-2306
-2289
-2266
-2268
-2283
-2331
-2358
-2338
-2312
-2274
-2244
-2247
-2265
-2311
-2361
-2360
-2336
-2289
-2240
-2210
-2218
-2294
-2361
-2361
-2342
-2323
-2281
-2244
-2244
-2274
-2319
-2329
-2309
-2295
-2274
-2272
-2273
-2287
-2321
-2326
-2302
-2272
-2256
-2261
-2286
-2324
-2351
-2349
-2303
-2253
-2238
-2251
-2272
-2295
-2351
-2352
-2271
-2147
-2039
-1947
-1871
-1842
-1837
-1820
-1742
-1672
-1599
-1533
-1521
-1537
-1574
-1601
-1581
-1566
-1579
-1614
-1644
-1716
-1783
-1839
-1882
-1927
-1995
-2077
-2182
-2284
-2348
-2346
-2306
-2261
-2227
-2227
-2257
-2311
-2365
-2384
-2335
-2273
-2237
-2218
-2237
-2269
-2324
-2344
-2334
-2309
-2268
-2236
-2224
-2266
-2295
-2321
-2319
-2300
-2285
-2260
-2264
-2305
-2439
-2616
-2752
-2719
-2129
-1243
-282
668
1636
2351
2171
1476
609
-335
-1306
-2147
-2489
-2519
-2420
-2299
-2240
-2227
-2226
-2257
-2319
-2348
-2337
-2305
-2263
-2246
-2234
-2253
-2291
-2315
-2304
-2289
-2283
-2269
-2282
-2309
-2324
-2322
-2304
-2273
-2254
-2257
-2277
-2324
-2340
-2331
-2301
-2264
-2248
-2232
-2254
-2312
-2355
-2369
-2327
-2267
-2226
-2207
-2228
-2276
-2288
-2288
-2247
-2177
-2124
-2078
-2022
-2006
-2003
-1970
-1902
-1858
-1797
-1757
-1737
-1719
-1714
-1686
-1616
-1571
-1537
-1525
-1509
-1529
-1541
-1511
-1469
-1400
-1349
-1342
-1358
-1419
-1462
-1446
-1417
-1385
-1349
-1356
-1390
-1457
-1525
-1566
-1596
-1602
-1594
-1607
-1623
-1686
-1768
-1829
-1874
-1898
-1921
-1971
-2002
-2071
-2146
-2209
-2233
-2246
-2233
-2249
-2266
-2305
-2329
-2324
-2280
-2238
-2216
-2202
-2246
-2293
-2339
-2367
-2342
-2284
-2236
-2217
-2211
-2273
-2318
-2347
-2339
-2306
-2281
-2243
-2233
-2246
-2283
-2304
-2305
-2286
-2276
-2259
-2252
-2266
-2295
-2296
-2277
-2264
-2247
-2246
-2259
-2296
-2339
-2327
-2302
-2272
-2237
-2228
-2252
-2307
-2351
-2364
-2334
-2282
-2240
-2206
-2217
-2262
-2313
-2339
-2328
-2306
-2269
-2232
-2231
-2258
-2298
-2306
-2294
-2291
-2279
-2260
-2261
-2279
-2315
-2329
-2296
-2271
-2252
-2257
-2260
-2309
-2345
-2331
-2286
-2247
-2219
-2217
-2248
-2293
-2346
-2367
-2317
-2271
-2239
-2211
-2209
-2261
-2313
-2336
-2337
-2301
-2262
-2228
-2226
-2256
-2291
-2312
-2305
-2277
-2264
-2266
-2261
-2276
-2302
-2309
-2270
-2244
-2248
-2252
-2276
-2314
-2331
-2334
-2284
-2247
-2223
-2212
-2240
-2297
-2342
-2352
-2326
-2274
-2226
-2208
-2222
-2262
-2317
-2345
-2326
-2309
-2267
-2243
-2224
-2239
-2266
-2302
-2311
-2281
-2264
-2258
-2259
-2277
-2296
-2291
-2274
-2255
-2237
-2239
-2269
-2300
-2319
-2321
-2287
-2246
-2232
-2231
-2254
-2306
-2351
-2356
-2317
-2274
-2234
-2217
-2212
-2255
-2316
-2356
-2329
-2298
-2266
-2227
-2224
-2251
-2288
-2253
-2172
-2068
-1974
-1890
-1817
-1779
-1757
-1716
-1644
-1579
-1521
-1505
-1519
-1569
-1602
-1598
-1572
-1551
-1561
-1602
-1663
-1768
-1863
-1929
-1981
-2026
-2054
-2094
-2169
-2239
-2312
-2337
-2322
-2286
-2238
-2219
-2225
-2237
-2289
-2319
-2291
-2277
-2274
-2263
-2261
-2279
-2299
-2314
-2286
-2245
-2246
-2261
-2276
-2304
-2321
-2332
-2284
-2229
-2224
-2218
-2276
-2429
-2629
-2812
-2782
-2142
-1209
-221
754
1713
2376
2139
1408
571
-325
-1262
-2056
-2389
-2443
-2401
-2334
-2279
-2258
-2255
-2252
-2264
-2297
-2305
-2286
-2265
-2239
-2229
-2251
-2311
-2341
-2337
-2297
-2244
-2207
-2218
-2225
-2268
-2324
-2338
-2311
-2247
-2216
-2210
-2224
-2271
-2310
-2340
-2333
-2294
-2249
-2233
-2237
-2247
-2287
-2309
-2307
-2294
-2276
-2246
-2249
-2253
-2249
-2216
-2162
-2112
-2071
-2046
-2016
-2004
-1978
-1936
-1862
-1773
-1702
-1674
-1683
-1703
-1722
-1696
-1628
-1560
-1501
-1456
-1424
-1451
-1486
-1506
-1472
-1412
-1367
-1336
-1324
-1355
-1399
-1408
-1412
-1417
-1414
-1407
-1444
-1487
-1534
-1552
-1577
-1582
-1622
-1644
-1696
-1775
-1838
-1887
-1892
-1896
-1906
-1951
-2023
-2127
-2226
-2296
-2305
-2282
-2221
-2202
-2209
-2259
-2316
-2341
-2321
-2286
-2254
-2222
-2221
-2236
-2274
-2308
-2301
-2269
-2260
-2249
-2246
-2269
-2295
-2301
-2286
-2255
-2244
-2244
-2256
-2287
-2332
-2330
-2282
-2239
-2212
-2210
-2237
-2294
-2341
-2352
-2319
-2267
-2231
-2198
-2207
-2254
-2313
-2339
-2326
-2293
-2249
-2221
-2211
-2242
-2281
-2288
-2305
-2282
-2259
-2259
-2259
-2273
-2296
-2296
-2285
-2259
-2237
-2232
-2262
-2311
-2337
-2327
-2288
-2237
-2224
-2223
-2230
-2286
-2338
-2351
-2329
-2267
-2225
-2209
-2221
-2260
-2321
-2343
-2318
-2279
-2245
-2225
-2217
-2249
-2304
-2311
-2305
-2279
-2247
-2248
-2257
-2281
-2303
-2306
-2279
-2246
-2233
-2240
-2264
-2291
-2330
-2325
-2280
-2227
-2214
-2217
-2246
-2291
-2340
-2341
-2315
-2271
-2229
-2194
-2200
-2251
-2329
-2343
-2309
-2294
-2284
-2235
-2227
-2252
-2285
-2302
-2300
-2271
-2262
-2248
-2249
-2261
-2281
-2292
-2271
-2254
-2236
-2239
-2261
-2299
-2326
-2333
-2297
-2252
-2217
-2216
-2238
-2289
-2338
-2349
-2312
-2265
-2220
-2201
-2202
-2256
-2304
-2329
-2315
-2291
-2259
-2229
-2219
-2247
-2277
-2304
-2308
-2289
-2273
-2247
-2246
-2267
-2295
-2288
-2273
-2250
-2236
-2235
-2241
-2273
-2257
-2182
-2060
-1941
-1834
-1762
-1746
-1754
-1739
-1714
-1637
-1548
-1485
-1466
-1471
-1519
-1562
-1599
-1626
-1634
-1633
-1639
-1670
-1750
-1866
-1960
-2036
-2089
-2157
-2201
-2232
-2267
-2305
-2292
-2259
-2254
-2242
-2223
-2241
-2292
-2329
-2322
-2283
-2241
-2205
-2194
-2226
-2284
-2332
-2351
-2311
-2251
-2210
-2192
-2217
-2269
-2305
-2326
-2317
-2286
-2255
-2242
-2345
-2526
-2745
-2769
-2192
-1275
-284
718
1699
2408
2187
1459
606
-316
-1257
-2072
-2387
-2442
-2409
-2337
-2281
-2243
-2207
-2199
-2228
-2292
-2336
-2343
-2306
-2262
-2217
-2200
-2204
-2242
-2301
-2336
-2316
-2282
-2252
-2221
-2218
-2234
-2279
-2305
-2287
-2266
-2254
-2244
-2243
-2254
-2282
-2282
-2256
-2244
-2232
-2241
-2244
-2288
-2335
-2325
-2274
-2241
-2218
-2192
-2219
-2237
-2252
-2226
-2164
-2096
-2012
-1941
-1892
-1912
-1925
-1897
-1855
-1794
-1716
-1670
-1632
-1632
-1633
-1627
-1582
-1538
-1494
-1454
-1440
-1452
-1461
-1437
-1385
-1349
-1333
-1349
-1373
-1402
-1436
-1436
-1402
-1380
-1385
-1407
-1441
-1521
-1595
-1627
-1634
-1621
-1616
-1623
-1684
-1766
-1856
-1928
-1953
-1977
-2004
-2019
-2059
-2131
-2213
-2271
-2282
-2264
-2254
-2251
-2256
-2274
-2299
-2295
-2266
-2246
-2248
-2243
-2252
-2286
-2321
-2322
-2279
-2242
-2209
-2199
-2231
-2271
-2307
-2335
-2324
-2264
-2214
-2194
-2204
-2257
-2304
-2329
-2314
-2284
-2254
-2215
-2211
-2251
-2287
-2309
-2296
-2278
-2253
-2254
-2252
-2266
-2277
-2288
-2272
-2240
-2240
-2232
-2256
-2296
-2334
-2328
-2269
-2232
-2207
-2208
-2227
-2274
-2314
-2327
-2311
-2262
-2222
-2194
-2196
-2252
-2317
-2327
-2312
-2289
-2248
-2223
-2224
-2236
-2279
-2307
-2289
-2277
-2255
-2241
-2239
-2269
-2288
-2290
-2262
-2242
-2236
-2234
-2253
-2294
-2327
-2309
-2283
-2250
-2225
-2213
-2229
-2272
-2317
-2334
-2302
-2267
-2227
-2195
-2205
-2254
-2319
-2350
-2331
-2286
-2249
-2218
-2214
-2232
-2272
-2301
-2309
-2298
-2266
-2248
-2242
-2257
-2283
-2285
-2267
-2253
-2248
-2232
-2250
-2282
-2320
-2309
-2271
-2245
-2214
-2207
-2234
-2281
-2332
-2334
-2306
-2274
-2238
-2216
-2203
-2237
-2299
-2324
-2312
-2281
-2246
-2221
-2206
-2233
-2271
-2303
-2290
-2276
-2249
-2245
-2246
-2239
-2282
-2292
-2262
-2244
-2235
-2241
-2241
-2279
-2329
-2326
-2267
-2235
-2216
-2199
-2212
-2267
-2339
-2347
-2307
-2266
-2224
-2198
-2194
-2184
-2182
-2133
-2026
-1927
-1810
-1724
-1666
-1652
-1649
-1615
-1574
-1540
-1511
-1506
-1517
-1540
-1564
-1578
-1600
-1625
-1657
-1707
-1770
-1864
-1971
-2067
-2107
-2126
-2162
-2193
-2228
-2262
-2316
-2344
-2311
-2269
-2206
-2191
-2209
-2233
-2288
-2336
-2305
-2279
-2254
-2213
-2202
-2255
-2291
-2309
-2308
-2282
-2262
-2243
-2246
-2274
-2298
-2298
-2272
-2256
-2256
-2364
-2539
-2742
-2777
-2206
-1276
-262
760
1768
2457
2201
1419
520
-371
-1257
-2031
-2326
-2349
-2347
-2340
-2335
-2308
-2280
-2251
-2219
-2215
-2238
-2277
-2297
-2289
-2276
-2266
-2257
-2251
-2269
-2295
-2294
-2268
-2230
-2234
-2232
-2247
-2279
-2317
-2309
-2286
-2250
-2207
-2193
-2217
-2272
-2325
-2328
-2312
-2263
-2217
-2192
-2199
-2254
-2311
-2324
-2306
-2277
-2244
-2192
-2177
-2156
-2165
-2149
-2113
-2067
-2009
-1948
-1914
-1892
-1872
-1828
-1759
-1702
-1669
-1645
-1626
-1643
-1655
-1607
-1548
-1480
-1433
-1401
-1410
-1448
-1483
-1476
-1429
-1369
-1322
-1304
-1317
-1367
-1416
-1440
-1455
-1457
-1437
-1426
-1440
-1495
-1578
-1637
-1665
-1675
-1691
-1714
-1761
-1818
-1891
-1946
-1966
-1992
-2027
-2079
-2142
-2214
-2286
-2294
-2275
-2227
-2205
-2209
-2235
-2272
-2310
-2334
-2297
-2261
-2221
-2200
-2208
-2252
-2304
-2317
-2309
-2298
-2252
-2239
-2229
-2249
-2267
-2296
-2304
-2296
-2261
-2251
-2254
-2277
-2279
-2286
-2262
-2251
-2238
-2229
-2247
-2295
-2316
-2317
-2282
-2235
-2197
-2207
-2224
-2267
-2310
-2339
-2313
-2263
-2226
-2206
-2212
-2252
-2307
-2336
-2328
-2287
-2252
-2221
-2207
-2247
-2284
-2297
-2298
-2282
-2276
-2256
-2250
-2263
-2287
-2282
-2266
-2256
-2248
-2225
-2237
-2279
-2319
-2316
-2281
-2232
-2207
-2204
-2226
-2299
-2331
-2343
-2314
-2264
-2213
-2204
-2221
-2261
-2295
-2329
-2321
-2297
-2252
-2231
-2224
-2242
-2289
-2286
-2272
-2271
-2262
-2251
-2244
-2254
-2284
-2297
-2274
-2251
-2239
-2234
-2259
-2292
-2317
-2315
-2294
-2228
-2205
-2202
-2226
-2277
-2329
-2352
-2321
-2260
-2219
-2186
-2189
-2248
-2307
-2322
-2312
-2297
-2255
-2209
-2195
-2229
-2279
-2300
-2286
-2280
-2269
-2256
-2254
-2267
-2291
-2290
-2266
-2243
-2230
-2231
-2268
-2297
-2328
-2321
-2278
-2234
-2211
-2207
-2227
-2273
-2332
-2346
-2310
-2271
-2218
-2186
-2189
-2249
-2303
-2331
-2312
-2271
-2239
-2222
-2230
-2250
-2270
-2294
-2296
-2272
-2264
-2221
-2170
-2128
-2085
-2015
-1904
-1802
-1725
-1691
-1657
-1650
-1631
-1599
-1549
-1498
-1467
-1454
-1474
-1554
-1613
-1674
-1689
-1675
-1667
-1699
-1777
-1909
-2036
-2142
-2202
-2244
-2227
-2224
-2211
-2227
-2280
-2311
-2302
-2268
-2259
-2247
-2250
-2251
-2275
-2284
-2267
-2239
-2225
-2227
-2241
-2264
-2304
-2310
-2282
-2242
-2192
-2190
-2233
-2274
-2314
-2346
-2309
-2269
-2351
-2482
-2656
-2703
-2206
-1351
-362
669
1710
2470
2289
1529
601
-362
-1297
-2077
-2372
-2393
-2329
-2292
-2286
-2266
-2246
-2232
-2236
-2226
-2251
-2284
-2317
-2314
-2274
-2240
-2213
-2202
-2219
-2269
-2311
-2343
-2321
-2261
-2214
-2196
-2193
-2239
-2304
-2321
-2292
-2278
-2241
-2208
-2205
-2229
-2269
-2292
-2291
-2267
-2262
-2251
-2231
-2239
-2275
-2293
-2268
-2226
-2195
-2181
-2159
-2165
-2168
-2142
-2078
-1983
-1917
-1863
-1849
-1845
-1858
-1841
-1779
-1681
-1602
-1561
-1553
-1571
-1578
-1586
-1552
-1499
-1448
-1412
-1390
-1396
-1420
-1420
-1396
-1369
-1361
-1367
-1363
-1384
-1417
-1423
-1429
-1426
-1436
-1447
-1510
-1586
-1660
-1689
-1669
-1651
-1664
-1711
-1771
-1867
-1966
-2016
-2050
-2050
-2044
-2070
-2129
-2211
-2301
-2321
-2314
-2287
-2240
-2215
-2213
-2232
-2267
-2294
-2289
-2284
-2261
-2254
-2233
-2251
-2277
-2300
-2263
-2227
-2221
-2219
-2249
-2286
-2317
-2327
-2278
-2219
-2190
-2190
-2228
-2268
-2302
-2322
-2304
-2265
-2226
-2194
-2207
-2239
-2281
-2326
-2331
-2295
-2242
-2207
-2210
-2231
-2271
-2295
-2289
-2264
-2240
-2232
-2237
-2249
-2282
-2279
-2258
-2252
-2238
-2221
-2245
-2275
-2302
-2297
-2265
-2221
-2197
-2190
-2232
-2286
-2334
-2328
-2298
-2266
-2222
-2192
-2197
-2234
-2286
-2308
-2297
-2268
-2239
-2195
-2196
-2235
-2267
-2289
-2279
-2274
-2253
-2233
-2217
-2240
-2278
-2287
-2274
-2252
-2239
-2243
-2257
-2279
-2319
-2298
-2271
-2246
-2219
-2201
-2220
-2279
-2324
-2328
-2297
-2260
-2228
-2179
-2187
-2242
-2302
-2340
-2316
-2272
-2220
-2192
-2199
-2234
-2268
-2294
-2297
-2270
-2241
-2245
-2244
-2255
-2283
-2302
-2264
-2221
-2219
-2225
-2239
-2295
-2306
-2303
-2279
-2235
-2209
-2192
-2206
-2266
-2317
-2340
-2303
-2249
-2221
-2194
-2189
-2234
-2310
-2332
-2322
-2284
-2247
-2232
-2201
-2232
-2266
-2299
-2288
-2270
-2250
-2230
-2221
-2251
-2281
-2282
-2273
-2230
-2223
-2224
-2245
-2281
-2311
-2324
-2279
-2221
-2178
-2135
-2099
-2076
-2041
-1983
-1867
-1764
-1669
-1606
-1569
-1568
-1562
-1592
-1581
-1549
-1519
-1488
-1474
-1527
-1612
-1668
-1717
-1747
-1777
-1817
-1876
-1983
-2098
-2176
-2222
-2224
-2226
-2227
-2248
-2269
-2316
-2310
-2277
-2235
-2201
-2199
-2227
-2267
-2316
-2337
-2296
-2241
-2211
-2191
-2190
-2236
-2297
-2327
-2317
-2285
-2238
-2218
-2216
-2241
-2271
-2300
-2308
-2396
-2534
-2681
-2706
-2180
-1319
-334
667
1687
2480
2296
1541
608
-369
-1302
-2080
-2350
-2351
-2293
-2247
-2271
-2314
-2336
-2307
-2250
-2215
-2185
-2192
-2226
-2292
-2322
-2310
-2286
-2251
-2220
-2221
-2227
-2263
-2280
-2281
-2254
-2244
-2234
-2239
-2251
-2284
-2297
-2266
-2241
-2232
-2226
-2239
-2271
-2306
-2302
-2276
-2235
-2192
-2185
-2221
-2276
-2328
-2337
-2307
-2234
-2159
-2096
-2080
-2109
-2131
-2123
-2062
-1993
-1892
-1814
-1773
-1756
-1766
-1764
-1729
-1677
-1614
-1598
-1555
-1546
-1551
-1532
-1487
-1447
-1406
-1384
-1396
-1407
-1433
-1424
-1383
-1342
-1317
-1302
-1327
-1394
-1460
-1496
-1487
-1444
-1428
-1439
-1484
-1564
-1652
-1719
-1732
-1738
-1748
-1773
-1823
-1883
-1956
-2032
-2075
-2101
-2127
-2168
-2222
-2267
-2286
-2290
-2259
-2236
-2234
-2224
-2236
-2282
-2319
-2310
-2273
-2232
-2202
-2197
-2214
-2269
-2330
-2344
-2305
-2251
-2207
-2195
-2200
-2240
-2292
-2324
-2319
-2289
-2240
-2216
-2204
-2227
-2271
-2299
-2287
-2281
-2256
-2224
-2221
-2241
-2274
-2291
-2267
-2236
-2223
-2229
-2226
-2260
-2313
-2315
-2261
-2224
-2187
-2191
-2222
-2263
-2314
-2341
-2309
-2250
-2210
-2181
-2183
-2237
-2285
-2313
-2317
-2274
-2227
-2209
-2193
-2224
-2269
-2295
-2289
-2272
-2236
-2215
-2227
-2257
-2282
-2292
-2261
-2240
-2216
-2212
-2243
-2277
-2312
-2313
-2265
-2222
-2200
-2189
-2219
-2273
-2311
-2325
-2306
-2263
-2206
-2182
-2197
-2241
-2300
-2327
-2310
-2273
-2242
-2210
-2205
-2227
-2277
-2296
-2289
-2271
-2249
-2237
-2235
-2246
-2267
-2268
-2245
-2222
-2216
-2221
-2248
-2279
-2300
-2304
-2272
-2232
-2206
-2197
-2218
-2272
-2326
-2327
-2290
-2247
-2206
-2174
-2187
-2231
-2291
-2336
-2306
-2264
-2231
-2208
-2205
-2224
-2275
-2304
-2282
-2254
-2255
-2233
-2232
-2251
-2282
-2282
-2257
-2235
-2234
-2227
-2245
-2281
-2321
-2308
-2266
-2226
-2196
-2183
-2216
-2271
-2306
-2341
-2301
-2248
-2192
-2177
-2196
-2242
-2286
-2310
-2299
-2252
-2160
-2081
-2004
-1952
-1914
-1870
-1781
-1726
-1661
-1596
-1561
-1549
-1554
-1552
-1512
-1499
-1479
-1501
-1542
-1612
-1690
-1729
-1742
-1746
-1780
-1854
-1957
-2091
-2198
-2281
-2297
-2254
-2199
-2173
-2181
-2246
-2291
-2316
-2318
-2274
-2234
-2204
-2207
-2234
-2266
-2296
-2296
-2258
-2241
-2227
-2230
-2247
-2281
-2277
-2263
-2233
-2222
-2239
-2242
-2277
-2308
-2327
-2387
-2507
-2641
-2661
-2146
-1316
-399
588
1626
2445
2314
1618
714
-264
-1260
-2107
-2426
-2432
-2336
-2235
-2212
-2224
-2269
-2301
-2308
-2276
-2249
-2231
-2233
-2251
-2276
-2271
-2247
-2230
-2229
-2233
-2246
-2269
-2299
-2304
-2273
-2222
-2196
-2190
-2214
-2259
-2297
-2327
-2314
-2259
-2219
-2192
-2196
-2239
-2289
-2324
-2310
-2271
-2241
-2198
-2199
-2231
-2282
-2279
-2261
-2215
-2163
-2119
-2092
-2082
-2084
-2052
-1977
-1904
-1853
-1809
-1776
-1776
-1772
-1734
-1681
-1609
-1540
-1504
-1509
-1527
-1550
-1551
-1495
-1431
-1365
-1334
-1319
-1356
-1396
-1426
-1419
-1393
-1337
-1316
-1315
-1369
-1445
-1467
-1481
-1498
-1518
-1522
-1557
-1617
-1667
-1706
-1726
-1756
-1787
-1827
-1894
-1972
-2054
-2101
-2110
-2122
-2132
-2166
-2207
-2264
-2312
-2329
-2305
-2267
-2210
-2180
-2172
-2226
-2299
-2337
-2323
-2276
-2226
-2217
-2214
-2222
-2270
-2302
-2282
-2263
-2247
-2239
-2233
-2257
-2281
-2279
-2262
-2228
-2206
-2217
-2248
-2273
-2311
-2299
-2266
-2224
-2207
-2195
-2221
-2274
-2306
-2334
-2307
-2245
-2208
-2187
-2191
-2240
-2292
-2327
-2314
-2277
-2231
-2199
-2199
-2223
-2274
-2284
-2276
-2269
-2227
-2223
-2232
-2256
-2280
-2286
-2263
-2237
-2227
-2218
-2239
-2277
-2299
-2294
-2270
-2234
-2191
-2189
-2219
-2268
-2312
-2324
-2304
-2251
-2197
-2186
-2185
-2234
-2302
-2331
-2302
-2264
-2234
-2211
-2204
-2228
-2267
-2289
-2277
-2254
-2245
-2233
-2229
-2256
-2279
-2289
-2269
-2249
-2236
-2221
-2234
-2265
-2308
-2306
-2272
-2232
-2192
-2189
-2222
-2274
-2323
-2339
-2307
-2258
-2210
-2175
-2199
-2226
-2286
-2312
-2302
-2274
-2247
-2217
-2199
-2223
-2280
-2290
-2287
-2269
-2244
-2222
-2236
-2248
-2276
-2287
-2264
-2247
-2231
-2218
-2244
-2282
-2311
-2314
-2289
-2225
-2196
-2201
-2235
-2268
-2308
-2346
-2309
-2244
-2214
-2197
-2199
-2239
-2288
-2318
-2310
-2272
-2232
-2200
-2206
-2244
-2276
-2297
-2302
-2274
-2252
-2244
-2216
-2232
-2284
-2293
-2261
-2167
-2097
-2033
-1969
-1912
-1864
-1809
-1727
-1644
-1581
-1524
-1507
-1544
-1592
-1602
-1573
-1511
-1487
-1482
-1531
-1619
-1715
-1799
-1826
-1861
-1892
-1934
-2011
-2112
-2221
-2285
-2281
-2262
-2260
-2248
-2225
-2237
-2279
-2287
-2266
-2234
-2225
-2223
-2237
-2270
-2305
-2293
-2274
-2234
-2194
-2189
-2201
-2266
-2321
-2321
-2277
-2251
-2211
-2185
-2186
-2219
-2297
-2427
-2591
-2728
-2706
-2147
-1254
-319
626
1609
2410
2298
1572
696
-242
-1192
-2047
-2396
-2410
-2357
-2268
-2231
-2237
-2269
-2307
-2315
-2272
-2231
-2207
-2190
-2213
-2273
-2318
-2352
-2307
-2245
-2194
-2171
-2176
-2239
-2289
-2311
-2302
-2289
-2261
-2217
-2214
-2232
-2276
-2304
-2288
-2263
-2241
-2240
-2242
-2257
-2273
-2296
-2278
-2236
-2230
-2228
-2226
-2274
-2302
-2292
-2242
-2156
-2101
-2066
-2049
-2052
-2059
-2043
-1962
-1866
-1779
-1718
-1685
-1699
-1737
-1737
-1684
-1616
-1560
-1498
-1481
-1471
-1491
-1485
-1467
-1436
-1416
-1366
-1341
-1358
-1397
-1398
-1384
-1344
-1324
-1336
-1382
-1442
-1493
-1512
-1502
-1492
-1497
-1516
-1567
-1656
-1731
-1796
-1811
-1808
-1802
-1832
-1881
-1966
-2095
-2166
-2183
-2197
-2206
-2194
-2195
-2229
-2259
-2274
-2277
-2267
-2246
-2239
-2242
-2260
-2281
-2280
-2256
-2223
-2221
-2234
-2247
-2274
-2309
-2314
-2272
-2231
-2206
-2197
-2223
-2275
-2311
-2329
-2299
-2258
-2221
-2196
-2199
-2233
-2282
-2325
-2335
-2291
-2249
-2219
-2224
-2231
-2262
-2288
-2281
-2265
-2243
-2240
-2243
-2267
-2289
-2293
-2271
-2247
-2236
-2237
-2247
-2286
-2329
-2311
-2264
-2239
-2205
-2199
-2215
-2267
-2319
-2346
-2306
-2251
-2208
-2185
-2189
-2224
-2290
-2312
-2304
-2277
-2242
-2213
-2197
-2223
-2266
-2285
-2291
-2279
-2245
-2242
-2237
-2264
-2278
-2287
-2276
-2252
-2234
-2229
-2236
-2282
-2304
-2302
-2282
-2227
-2194
-2183
-2216
-2267
-2318
-2340
-2305
-2250
-2201
-2176
-2187
-2222
-2293
-2317
-2316
-2281
-2244
-2204
-2204
-2229
-2247
-2286
-2283
-2271
-2236
-2226
-2237
-2256
-2281
-2301
-2282
-2256
-2236
-2236
-2241
-2281
-2309
-2303
-2262
-2241
-2210
-2198
-2220
-2275
-2333
-2337
-2304
-2259
-2217
-2177
-2172
-2231
-2297
-2333
-2315
-2264
-2230
-2221
-2208
-2222
-2258
-2287
-2285
-2272
-2257
-2232
-2246
-2241
-2265
-2292
-2259
-2232
-2216
-2218
-2239
-2270
-2311
-2314
-2262
-2214
-2205
-2207
-2212
-2265
-2310
-2319
-2255
-2137
-2016
-1908
-1831
-1794
-1791
-1771
-1722
-1642
-1575
-1497
-1461
-1492
-1541
-1554
-1546
-1541
-1534
-1556
-1605
-1666
-1729
-1790
-1834
-1909
-1972
-2030
-2119
-2229
-2302
-2324
-2276
-2227
-2197
-2181
-2211
-2255
-2304
-2326
-2299
-2258
-2200
-2180
-2190
-2237
-2297
-2326
-2314
-2287
-2253
-2215
-2200
-2226
-2259
-2284
-2277
-2267
-2241
-2222
-2227
-2264
-2404
-2556
-2702
-2721
-2181
-1297
-362
595
1561
2357
2274
1591
733
-184
-1152
-2025
-2429
-2479
-2411
-2309
-2213
-2189
-2201
-2226
-2274
-2326
-2317
-2280
-2247
-2224
-2205
-2228
-2266
-2297
-2287
-2260
-2232
-2234
-2241
-2250
-2270
-2279
-2271
-2241
-2231
-2222
-2224
-2262
-2296
-2294
-2269
-2231
-2201
-2189
-2209
-2251
-2303
-2327
-2293
-2241
-2192
-2174
-2192
-2237
-2259
-2266
-2227
-2174
-2107
-2039
-1999
-1994
-1987
-1956
-1906
-1842
-1769
-1722
-1701
-1689
-1680
-1677
-1611
-1559
-1519
-1491
-1488
-1496
-1504
-1493
-1431
-1369
-1314
-1298
-1328
-1382
-1437
-1468
-1413
-1361
-1337
-1334
-1374
-1416
-1483
-1548
-1562
-1556
-1553
-1551
-1590
-1666
-1725
-1795
-1837
-1867
-1914
-1940
-1972
-2037
-2116
-2174
-2190
-2211
-2224
-2218
-2230
-2276
-2308
-2286
-2258
-2234
-2202
-2196
-2227
-2279
-2307
-2327
-2300
-2259
-2220
-2195
-2184
-2244
-2300
-2322
-2308
-2264
-2242
-2226
-2212
-2219
-2247
-2288
-2296
-2277
-2257
-2244
-2229
-2239
-2271
-2296
-2276
-2236
-2224
-2242
-2254
-2282
-2312
-2302
-2277
-2233
-2201
-2202
-2206
-2264
-2311
-2330
-2322
-2256
-2218
-2197
-2195
-2236
-2287
-2328
-2327
-2284
-2236
-2199
-2202
-2222
-2263
-2289
-2286
-2265
-2250
-2236
-2237
-2252
-2274
-2275
-2253
-2220
-2235
-2230
-2241
-2277
-2310
-2324
-2282
-2234
-2207
-2192
-2221
-2265
-2317
-2336
-2304
-2257
-2224
-2192
-2187
-2237
-2291
-2310
-2311
-2285
-2246
-2226
-2209
-2223
-2267
-2286
-2284
-2256
-2247
-2223
-2228
-2258
-2282
-2293
-2256
-2249
-2237
-2228
-2226
-2266
-2304
-2301
-2270
-2236
-2209
-2208
-2215
-2256
-2302
-2352
-2319
-2255
-2211
-2193
-2195
-2231
-2287
-2327
-2311
-2266
-2234
-2215
-2207
-2239
-2274
-2297
-2288
-2261
-2247
-2227
-2234
-2255
-2279
-2289
-2257
-2233
-2218
-2223
-2234
-2269
-2306
-2303
-2276
-2224
-2187
-2182
-2211
-2272
-2321
-2325
-2301
-2241
-2207
-2189
-2179
-2219
-2284
-2324
-2307
-2269
-2224
-2195
-2187
-2214
-2251
-2229
-2147
-2060
-1970
-1866
-1794
-1764
-1754
-1701
-1623
-1554
-1507
-1489
-1502
-1547
-1573
-1559
-1535
-1519
-1530
-1569
-1624
-1704
-1807
-1903
-1952
-1987
-2020
-2075
-2144
-2220
-2292
-2311
-2297
-2272
-2236
-2204
-2212
-2227
-2267
-2286
-2284
-2273
-2247
-2226
-2227
-2239
-2274
-2275
-2265
-2232
-2213
-2218
-2242
-2276
-2301
-2297
-2267
-2220
-2195
-2194
-2229
-2374
-2578
-2774
-2780
-2223
-1317
-308
682
1629
2367
2228
1534
685
-226
-1135
-1961
-2343
-2417
-2390
-2319
-2267
-2243
-2225
-2218
-2246
-2273
-2270
-2251
-2232
-2214
-2219
-2219
-2248
-2303
-2299
-2257
-2218
-2202
-2202
-2213
-2254
-2294
-2306
-2295
-2247
-2205
-2183
-2185
-2212
-2276
-2307
-2294
-2269
-2228
-2191
-2192
-2218
-2265
-2289
-2264
-2243
-2236
-2227
-2225
-2233
-2211
-2188
-2149
-2086
-2039
-2002
-1989
-1984
-1971
-1922
-1842
-1764
-1694
-1662
-1666
-1676
-1696
-1677
-1614
-1539
-1462
-1412
-1405
-1446
-1477
-1471
-1444
-1399
-1358
-1319
-1318
-1333
-1371
-1399
-1383
-1384
-1382
-1398
-1432
-1471
-1503
-1545
-1534
-1549
-1581
-1618
-1661
-1734
-1811
-1848
-1859
-1860
-1888
-1928
-1986
-2086
-2184
-2262
-2271
-2244
-2225
-2184
-2184
-2230
-2274
-2303
-2299
-2269
-2236
-2207
-2194
-2221
-2254
-2261
-2266
-2265
-2249
-2237
-2230
-2241
-2262
-2278
-2258
-2229
-2218
-2223
-2233
-2266
-2292
-2306
-2264
-2220
-2199
-2189
-2199
-2251
-2301
-2334
-2299
-2232
-2202
-2180
-2177
-2225
-2267
-2307
-2306
-2282
-2247
-2206
-2202
-2211
-2255
-2282
-2294
-2263
-2244
-2232
-2231
-2243
-2272
-2292
-2253
-2221
-2206
-2207
-2225
-2263
-2292
-2303
-2257
-2223
-2203
-2186
-2202
-2262
-2311
-2322
-2299
-2259
-2208
-2177
-2199
-2237
-2280
-2316
-2317
-2290
-2249
-2216
-2192
-2212
-2254
-2285
-2287
-2274
-2236
-2216
-2235
-2256
-2281
-2290
-2256
-2230
-2219
-2216
-2232
-2274
-2304
-2301
-2255
-2221
-2197
-2184
-2207
-2252
-2303
-2327
-2301
-2256
-2207
-2181
-2178
-2218
-2282
-2314
-2300
-2264
-2238
-2184
-2184
-2205
-2255
-2274
-2276
-2261
-2241
-2231
-2237
-2249
-2276
-2277
-2241
-2228
-2223
-2218
-2229
-2268
-2301
-2307
-2267
-2231
-2189
-2176
-2203
-2249
-2309
-2326
-2300
-2259
-2206
-2172
-2183
-2226
-2289
-2311
-2299
-2274
-2247
-2216
-2204
-2222
-2269
-2277
-2281
-2247
-2231
-2227
-2238
-2251
-2278
-2276
-2241
-2225
-2206
-2204
-2227
-2254
-2260
-2198
-2070
-1947
-1840
-1750
-1714
-1713
-1714
-1697
-1627
-1539
-1492
-1451
-1452
-1486
-1561
-1602
-1599
-1606
-1612
-1628
-1662
-1736
-1832
-1929
-1998
-2051
-2112
-2171
-2207
-2234
-2260
-2267
-2244
-2222
-2212
-2199
-2231
-2262
-2292
-2288
-2254
-2227
-2196
-2190
-2206
-2244
-2299
-2316
-2297
-2249
-2207
-2182
-2183
-2214
-2278
-2299
-2296
-2276
-2237
-2216
-2302
-2490
-2689
-2768
-2245
-1346
-348
642
1648
2386
2248
1543
701
-199
-1136
-1974
-2344
-2413
-2401
-2344
-2274
-2230
-2200
-2181
-2194
-2248
-2316
-2316
-2296
-2261
-2206
-2174
-2189
-2216
-2281
-2321
-2313
-2273
-2232
-2206
-2203
-2218
-2252
-2266
-2266
-2261
-2232
-2223
-2229
-2245
-2270
-2277
-2257
-2229
-2220
-2204
-2217
-2262
-2297
-2309
-2269
-2225
-2199
-2180
-2201
-2220
-2232
-2217
-2162
-2074
-2004
-1924
-1888
-1880
-1896
-1881
-1824
-1764
-1717
-1649
-1607
-1601
-1619
-1607
-1577
-1531
-1483
-1462
-1436
-1436
-1454
-1425
-1389
-1336
-1319
-1312
-1339
-1381
-1420
-1409
-1384
-1368
-1346
-1362
-1404
-1481
-1554
-1614
-1622
-1595
-1586
-1597
-1642
-1731
-1836
-1912
-1937
-1962
-1974
-1987
-2038
-2111
-2195
-2244
-2266
-2248
-2234
-2224
-2239
-2270
-2274
-2277
-2255
-2237
-2227
-2212
-2226
-2277
-2304
-2292
-2273
-2224
-2187
-2178
-2211
-2260
-2293
-2317
-2299
-2247
-2207
-2181
-2179
-2222
-2277
-2306
-2312
-2277
-2238
-2202
-2203
-2219
-2252
-2281
-2277
-2255
-2242
-2227
-2232
-2243
-2261
-2270
-2244
-2215
-2222
-2206
-2214
-2244
-2289
-2306
-2267
-2222
-2191
-2200
-2207
-2231
-2300
-2327
-2310
-2259
-2213
-2177
-2177
-2226
-2280
-2307
-2298
-2271
-2237
-2210
-2184
-2212
-2256
-2271
-2273
-2254
-2237
-2216
-2222
-2238
-2280
-2280
-2265
-2236
-2210
-2201
-2232
-2256
-2295
-2304
-2281
-2221
-2197
-2186
-2208
-2268
-2306
-2327
-2301
-2251
-2217
-2175
-2186
-2233
-2284
-2302
-2311
-2292
-2239
-2197
-2195
-2206
-2251
-2278
-2279
-2257
-2242
-2232
-2233
-2250
-2268
-2268
-2257
-2240
-2210
-2213
-2238
-2272
-2311
-2304
-2264
-2214
-2171
-2164
-2193
-2250
-2306
-2327
-2304
-2246
-2204
-2179
-2195
-2234
-2279
-2298
-2289
-2276
-2234
-2211
-2210
-2222
-2270
-2269
-2276
-2256
-2222
-2218
-2216
-2248
-2284
-2268
-2244
-2226
-2221
-2219
-2236
-2264
-2306
-2308
-2272
-2229
-2204
-2196
-2202
-2239
-2309
-2336
-2299
-2238
-2211
-2189
-2176
-2165
-2164
-2109
-2021
-1900
-1786
-1709
-1667
-1638
-1623
-1609
-1561
-1514
-1496
-1484
-1476
-1498
-1534
-1581
-1585
-1599
-1631
-1670
-1745
-1855
-1954
-2021
-2076
-2119
-2147
-2157
-2189
-2238
-2307
-2337
-2306
-2251
-2220
-2172
-2160
-2218
-2279
-2309
-2314
-2273
-2235
-2211
-2192
-2207
-2252
-2267
-2271
-2262
-2231
-2219
-2227
-2246
-2266
-2276
-2261
-2222
-2216
-2324
-2490
-2687
-2778
-2287
-1394
-372
653
1667
2456
2297
1536
629
-263
-1157
-1969
-2282
-2321
-2321
-2311
-2312
-2301
-2267
-2242
-2214
-2197
-2220
-2252
-2275
-2275
