-2856
-2757
-2609
-2531
-2495
-2482
-2491
-2541
-2492
-2499
-2446
-2465
-2407
-2362
-2371
-2419
-2421
-2436
-2389
-2387
-2361
-2438
-2401
-2381
-2356
-2362
-2348
-2366
-2344
-2357
-2360
-2427
-2354
-2317
-2301
-2311
-2288
-2349
-2367
-2376
-2389
-2424
-2317
-2275
-2256
-2295
-2315
-2362
-2356
-2331
-2302
-2344
-2281
-2253
-2274
-2324
-2356
-2357
-2324
-2291
-2281
-2324
-2309
-2288
-2276
-2291
-2294
-2299
-2292
-2292
-2304
-2394
-2332
-2290
-2253
-2264
-2251
-2294
-2309
-2352
-2319
-2347
-2271
-2231
-2212
-2232
-2257
-2338
-2334
-2315
-2277
-2327
-2264
-2245
-2225
-2294
-2274
-2306
-2288
-2272
-2232
-2291
-2259
-2262
-2267
-2261
-2242
-2271
-2264
-2263
-2261
-2331
-2315
-2231
-2212
-2214
-2216
-2261
-2279
-2298
-2299
-2342
-2249
-2221
-2211
-2211
-2239
-2306
-2299
-2284
-2249
-2280
-2227
-2211
-2215
-2253
-2251
-2279
-2252
-2252
-2211
-2282
-2249
-2246
-2227
-2254
-2207
-2239
-2236
-2232
-2257
-2316
-2252
-2233
-2197
-2193
-2194
-2239
-2277
-2274
-2272
-2289
-2251
-2182
-2169
-2206
-2222
-2276
-2273
-2242
-2231
-2287
-2217
-2177
-2172
-2259
-2247
-2241
-2247
-2248
-2214
-2252
-2237
-2214
-2196
-2216
-2189
-2231
-2219
-2212
-2232
-2309
-2277
-2220
-2169
-2208
-2189
-2213
-2225
-2272
-2207
-2215
-2114
-2055
-2033
-2045
-2044
-2063
-2067
-2060
-1998
-2014
-1981
-1921
-1916
-1948
-1951
-1979
-1957
-1934
-1929
-1990
-1976
-1979
-1979
-2002
-2001
-2006
-2027
-2050
-2077
-2164
-2144
-2097
-2106
-2129
-2144
-2202
-2234
-2273
-2259
-2271
-2231
-2181
-2142
-2179
-2194
-2256
-2267
-2249
-2208
-2233
-2202
-2163
-2159
-2204
-2209
-2211
-2217
-2224
-2193
-2222
-2218
-2188
-2196
-2186
-2160
-2191
-2191
-2191
-2226
-2269
-2239
-2189
-2160
-2141
-2162
-2179
-2246
-2313
-2331
-2399
-2390
-2385
-2414
-2452
-2379
-2234
-1991
-1749
-1463
-1260
-982
-746
-488
-315
-54
151
149
-1
-202
-466
-671
-887
-1075
-1319
-1546
-1765
-1990
-2209
-2329
-2388
-2356
-2267
-2217
-2206
-2187
-2193
-2230
-2249
-2239
-2246
-2194
-2129
-2126
-2155
-2177
-2247
-2263
-2226
-2188
-2226
-2194
-2156
-2166
-2197
-2213
-2231
-2201
-2186
-2172
-2213
-2188
-2174
-2172
-2152
-2129
-2156
-2141
-2143
-2171
-2237
-2203
-2148
-2097
-2094
-2093
-2121
-2166
-2169
-2158
-2171
-2118
-2055
-2039
-2037
-2071
-2098
-2104
-2110
-2079
-2087
-2037
-2004
-2011
-2046
-2063
-2061
-2061
-2042
-2007
-2051
-2033
-2009
-2006
-1977
-1952
-1994
-1961
-1956
-1964
-2050
-1997
-1910
-1882
-1887
-1910
-1911
-1946
-1981
-1933
-1939
-1877
-1824
-1787
-1780
-1796
-1831
-1844
-1811
-1769
-1781
-1744
-1703
-1700
-1737
-1759
-1755
-1756
-1717
-1742
-1793
-1805
-1783
-1782
-1780
-1776
-1802
-1824
-1836
-1885
-1951
-1937
-1896
-1906
-1929
-1969
-2039
-2101
-2142
-2140
-2172
-2124
-2089
-2074
-2106
-2172
-2208
-2230
-2217
-2176
-2225
-2169
-2136
-2128
-2167
-2196
-2198
-2197
-2193
-2171
-2202
-2217
-2189
-2184
-2181
-2137
-2146
-2180
-2151
-2189
-2234
-2230
-2169
-2139
-2133
-2131
-2163
-2202
-2221
-2200
-2243
-2195
-2127
-2087
-2094
-2152
-2201
-2207
-2204
-2165
-2176
-2152
-2124
-2137
-2189
-2174
-2204
-2191
-2166
-2156
-2191
-2175
-2198
-2167
-2161
-2152
-2158
-2136
-2153
-2171
-2237
-2234
-2146
-2142
-2126
-2122
-2146
-2196
-2186
-2208
-2232
-2177
-2121
-2094
-2116
-2149
-2206
-2225
-2209
-2159
-2199
-2172
-2124
-2126
-2150
-2181
-2189
-2176
-2157
-2139
-2185
-2202
-2187
-2156
-2159
-2142
-2143
-2164
-2166
-2174
-2232
-2204
-2167
-2124
-2127
-2111
-2141
-2176
-2194
-2201
-2214
-2179
-2133
-2097
-2122
-2166
-2197
-2211
-2189
-2175
-2186
-2157
-2126
-2126
-2156
-2152
-2159
-2180
-2156
-2126
-2160
-2199
-2167
-2148
-2135
-2152
-2158
-2152
-2153
-2177
-2229
-2206
-2143
-2108
-2117
-2102
-2147
-2177
-2214
-2210
-2225
-2164
-2137
-2096
-2102
-2161
-2199
-2231
-2205
-2143
-2177
-2174
-2132
-2121
-2149
-2180
-2184
-2187
-2157
-2162
-2177
-2194
-2185
-2148
-2153
-2136
-2151
-2187
-2156
-2159
-2208
-2192
-2156
-2105
-2095
-2117
-2152
-2176
-2188
-2203
-2204
-2163
-2112
-2082
-2106
-2135
-2192
-2201
-2147
-2135
-2127
-2067
-2035
-1984
-2010
-2004
-2006
-1977
-1948
-1921
-1938
-1932
-1900
-1900
-1884
-1872
-1882
-1898
-1881
-1912
-1949
-1942
-1896
-1867
-1883
-1899
-1952
-2027
-2058
-2060
-2082
-2075
-2017
-2039
-2051
-2103
-2156
-2199
-2182
-2153
-2167
-2161
-2108
-2114
-2166
-2183
-2179
-2165
-2147
-2131
-2171
-2169
-2184
-2164
-2131
-2125
-2119
-2136
-2152
-2151
-2229
-2202
-2144
-2094
-2080
-2095
-2137
-2205
-2184
-2197
-2192
-2156
-2092
-2084
-2104
-2137
-2166
-2219
-2221
-2252
-2315
-2347
-2342
-2381
-2467
-2392
-2156
-1926
-1687
-1427
-1216
-1012
-746
-471
-223
35
228
202
34
-181
-452
-654
-830
-997
-1231
-1475
-1723
-1966
-2192
-2291
-2331
-2284
-2192
-2165
-2134
-2162
-2181
-2199
-2176
-2140
-2146
-2164
-2124
-2111
-2139
-2159
-2155
-2182
-2136
-2132
-2170
-2192
-2169
-2144
-2129
-2132
-2126
-2143
-2152
-2154
-2186
-2180
-2124
-2084
-2079
-2071
-2086
-2144
-2167
-2141
-2154
-2139
-2084
-2030
-2037
-2069
-2127
-2134
-2112
-2058
-2077
-2054
-2002
-2000
-2043
-2042
-2028
-2031
-2016
-1987
-2034
-2052
-2031
-1982
-1977
-1961
-1964
-2017
-1988
-1997
-2039
-2050
-1970
-1915
-1891
-1897
-1914
-1967
-1958
-1957
-1958
-1942
-1859
-1837
-1841
-1857
-1884
-1901
-1892
-1862
-1854
-1845
-1779
-1774
-1774
-1784
-1772
-1763
-1732
-1716
-1740
-1740
-1703
-1682
-1649
-1661
-1677
-1695
-1708
-1726
-1782
-1799
-1734
-1684
-1704
-1728
-1741
-1827
-1851
-1849
-1866
-1871
-1838
-1841
-1869
-1969
-2014
-2075
-2070
-2073
-2085
-2109
-2042
-2079
-2106
-2141
-2149
-2148
-2139
-2116
-2125
-2157
-2162
-2115
-2121
-2111
-2104
-2115
-2127
-2133
-2191
-2210
-2123
-2094
-2102
-2101
-2100
-2146
-2174
-2162
-2170
-2171
-2104
-2074
-2065
-2114
-2157
-2209
-2184
-2145
-2137
-2153
-2094
-2098
-2121
-2159
-2159
-2146
-2143
-2120
-2152
-2189
-2149
-2139
-2127
-2126
-2123
-2131
-2132
-2144
-2197
-2187
-2148
-2101
-2089
-2095
-2099
-2161
-2186
-2156
-2196
-2157
-2087
-2082
-2075
-2126
-2151
-2184
-2158
-2147
-2146
-2156
-2119
-2111
-2132
-2129
-2139
-2171
-2136
-2120
-2148
-2170
-2127
-2107
-2108
-2112
-2098
-2114
-2117
-2137
-2181
-2193
-2114
-2098
-2074
-2089
-2102
-2157
-2163
-2161
-2172
-2166
-2119
-2079
-2086
-2116
-2169
-2193
-2157
-2114
-2147
-2140
-2096
-2127
-2136
-2164
-2137
-2138
-2121
-2109
-2127
-2181
-2141
-2144
-2102
-2096
-2111
-2149
-2122
-2151
-2186
-2198
-2123
-2095
-2051
-2084
-2115
-2159
-2171
-2175
-2199
-2178
-2086
-2066
-2076
-2126
-2164
-2183
-2158
-2121
-2145
-2141
-2106
-2117
-2123
-2131
-2139
-2161
-2097
-2048
-2081
-2084
-2027
-1992
-1959
-1954
-1922
-1921
-1941
-1938
-1960
-1966
-1878
-1844
-1821
-1812
-1825
-1906
-1900
-1906
-1909
-1914
-1847
-1824
-1841
-1930
-1954
-2004
-1989
-1974
-2011
-2061
-1970
-2042
-2082
-2119
-2127
-2136
-2109
-2114
-2130
-2178
-2138
-2128
-2114
-2095
-2089
-2114
-2136
-2142
-2213
-2192
-2119
-2096
-2076
-2089
-2104
-2149
-2182
-2151
-2168
-2171
-2097
-2065
-2076
-2124
-2149
-2182
-2156
-2134
-2124
-2127
-2084
-2098
-2118
-2162
-2134
-2172
-2190
-2217
-2269
-2367
-2361
-2401
-2388
-2297
-2087
-1871
-1649
-1438
-1219
-1015
-699
-405
-160
47
238
203
11
-192
-392
-600
-759
-969
-1193
-1454
-1716
-1979
-2160
-2265
-2267
-2287
-2193
-2169
-2175
-2194
-2153
-2142
-2117
-2111
-2125
-2170
-2138
-2112
-2081
-2113
-2088
-2110
-2112
-2147
-2173
-2196
-2133
-2113
-2082
-2102
-2107
-2157
-2178
-2171
-2152
-2170
-2098
-2061
-2040
-2096
-2122
-2139
-2121
-2107
-2107
-2131
-2059
-2054
-2054
-2095
-2079
-2078
-2066
-2031
-2047
-2084
-2051
-2030
-2004
-1985
-1972
-2000
-2011
-2014
-2048
-2077
-1997
-1941
-1922
-1951
-1944
-1999
-2014
-2010
-1997
-2006
-1900
-1876
-1874
-1917
-1939
-1986
-1952
-1925
-1912
-1911
-1854
-1846
-1861
-1872
-1861
-1881
-1857
-1826
-1817
-1872
-1826
-1774
-1737
-1738
-1709
-1721
-1744
-1726
-1754
-1784
-1691
-1652
-1629
-1637
-1649
-1716
-1736
-1760
-1742
-1754
-1687
-1673
-1657
-1745
-1791
-1831
-1835
-1814
-1814
-1852
-1834
-1883
-1902
-1965
-1981
-2024
-2034
-2039
-2052
-2129
-2096
-2082
-2082
-2091
-2068
-2114
-2110
-2125
-2148
-2206
-2131
-2094
-2052
-2079
-2094
-2136
-2167
-2182
-2165
-2179
-2084
-2046
-2035
-2084
-2134
-2179
-2150
-2138
-2140
-2160
-2093
-2092
-2098
-2119
-2112
-2154
-2132
-2116
-2124
-2201
-2146
-2122
-2100
-2104
-2104
-2151
-2111
-2145
-2154
-2204
-2106
-2074
-2074
-2095
-2087
-2146
-2162
-2168
-2148
-2175
-2084
-2072
-2076
-2121
-2137
-2166
-2157
-2134
-2126
-2166
-2097
-2092
-2098
-2141
-2136
-2151
-2115
-2119
-2105
-2175
-2166
-2114
-2089
-2115
-2102
-2122
-2131
-2150
-2161
-2197
-2127
-2090
-2072
-2084
-2086
-2149
-2179
-2182
-2154
-2165
-2091
-2081
-2072
-2104
-2152
-2172
-2147
-2134
-2106
-2141
-2096
-2109
-2143
-2144
-2127
-2113
-2117
-2114
-2121
-2191
-2134
-2117
-2102
-2079
-2108
-2129
-2124
-2144
-2146
-2212
-2127
-2053
-2047
-2032
-2012
-2062
-2052
-2021
-1977
-2001
-1897
-1877
-1845
-1886
-1899
-1916
-1907
-1878
-1832
-1884
-1821
-1839
-1862
-1871
-1876
-1876
-1876
-1891
-1916
-1999
-1964
-1956
-1932
-1981
-1989
-2016
-2053
-2071
-2123
-2194
-2102
-2071
-2052
-2062
-2082
-2152
-2172
-2177
-2146
-2161
-2091
-2094
-2061
-2095
-2144
-2187
-2145
-2136
-2116
-2131
-2084
-2094
-2128
-2144
-2127
-2145
-2113
-2117
-2112
-2176
-2117
-2117
-2101
-2099
-2084
-2119
-2091
-2136
-2159
-2230
-2137
-2142
-2162
-2234
-2286
-2362
-2420
-2446
-2346
-2177
-1869
-1611
-1362
-1166
-955
-757
-490
-214
38
206
266
64
-123
-346
-587
-827
-1023
-1239
-1464
-1763
-1924
-2136
-2212
-2238
-2222
-2232
-2212
-2194
-2185
-2218
-2126
-2103
-2088
-2088
-2094
-2161
-2187
-2164
-2151
-2167
-2109
-2082
-2060
-2117
-2166
-2191
-2176
-2170
-2149
-2182
-2102
-2104
-2099
-2129
-2100
-2127
-2103
-2093
-2088
-2148
-2107
-2090
-2078
-2079
-2068
-2086
-2054
-2102
-2096
-2139
-2066
-2032
-1997
-2009
-2009
-2060
-2076
-2049
-2021
-2065
-1988
-1959
-1937
-1967
-2010
-2031
-2017
-1997
-1964
-2004
-1944
-1948
-1947
-1966
-1954
-1974
-1953
-1947
-1919
-1980
-1937
-1901
-1871
-1871
-1862
-1876
-1871
-1890
-1905
-1934
-1841
-1804
-1776
-1791
-1777
-1814
-1814
-1814
-1774
-1810
-1711
-1685
-1660
-1708
-1697
-1726
-1697
-1676
-1664
-1722
-1642
-1666
-1687
-1714
-1724
-1749
-1714
-1724
-1736
-1833
-1804
-1787
-1768
-1785
-1788
-1849
-1900
-1942
-2002
-2066
-2016
-2016
-2009
-2026
-2057
-2115
-2152
-2149
-2125
-2185
-2112
-2074
-2051
-2102
-2137
-2178
-2139
-2125
-2112
-2155
-2091
-2104
-2113
-2142
-2120
-2115
-2114
-2107
-2101
-2175
-2154
-2134
-2103
-2104
-2088
-2129
-2121
-2154
-2157
-2204
-2129
-2085
-2042
-2093
-2093
-2139
-2170
-2198
-2161
-2184
-2095
-2081
-2084
-2112
-2128
-2167
-2157
-2142
-2126
-2146
-2106
-2107
-2098
-2142
-2127
-2123
-2121
-2129
-2122
-2179
-2147
-2128
-2101
-2126
-2088
-2114
-2111
-2153
-2141
-2193
-2137
-2096
-2069
-2071
-2078
-2139
-2157
-2171
-2136
-2170
-2108
-2069
-2056
-2109
-2153
-2179
-2146
-2137
-2106
-2169
-2101
-2072
-2047
-2051
-2051
-2029
-1993
-1966
-1960
-2012
-1947
-1907
-1851
-1852
-1846
-1863
-1854
-1877
-1882
-1932
-1879
-1837
-1786
-1807
-1831
-1882
-1925
-1935
-1951
-1967
-1902
-1902
-1909
-1999
-2024
-2074
-2086
-2087
-2058
-2134
-2099
-2087
-2103
-2136
-2123
-2152
-2125
-2106
-2115
-2159
-2154
-2129
-2071
-2085
-2091
-2113
-2118
-2148
-2162
-2221
-2114
-2072
-2060
-2069
-2088
-2142
-2157
-2182
-2152
-2156
-2106
-2064
-2054
-2121
-2148
-2176
-2142
-2124
-2106
-2148
-2118
-2167
-2214
-2269
-2298
-2375
-2386
-2416
-2302
-2197
-1944
-1647
-1384
-1150
-894
-693
-470
-254
-24
154
229
106
-52
-282
-524
-799
-1072
-1276
-1480
-1744
-1896
-2066
-2157
-2239
-2252
-2261
-2218
-2186
-2157
-2156
-2089
-2091
-2097
-2126
-2096
-2137
-2124
-2097
-2108
-2188
-2157
-2137
-2091
-2086
-2079
-2129
-2122
-2147
-2159
-2204
-2144
-2082
-2054
-2069
-2070
-2111
-2142
-2134
-2112
-2137
-2058
-2018
-2025
-2052
-2092
-2129
-2126
-2104
-2057
-2085
-2026
-2026
-2030
-2062
-2030
-2038
-2014
-1996
-1996
-2072
-2017
-2000
-1958
-1994
-1948
-1981
-1989
-2004
-2013
-2074
-1997
-1934
-1900
-1907
-1904
-1956
-1983
-1988
-1949
-1978
-1894
-1869
-1837
-1874
-1889
-1901
-1902
-1871
-1835
-1872
-1812
-1805
-1822
-1828
-1809
-1819
-1805
-1752
-1732
-1797
-1769
-1719
-1672
-1681
-1634
-1675
-1680
-1687
-1698
-1761
-1696
-1646
-1615
-1644
-1677
-1739
-1774
-1770
-1745
-1812
-1769
-1748
-1742
-1803
-1844
-1902
-1924
-1942
-1942
-2017
-1989
-2006
-2040
-2079
-2065
-2082
-2073
-2089
-2106
-2167
-2139
-2109
-2079
-2095
-2096
-2121
-2103
-2130
-2139
-2199
-2132
-2081
-2051
-2083
-2081
-2137
-2179
-2166
-2144
-2171
-2107
-2061
-2054
-2096
-2126
-2161
-2148
-2134
-2114
-2152
-2100
-2097
-2087
-2136
-2132
-2134
-2109
-2116
-2113
-2179
-2149
-2141
-2104
-2087
-2066
-2097
-2093
-2131
-2157
-2179
-2125
-2068
-2017
-1995
-1997
-2042
-2056
-2051
-1978
-1999
-1901
-1846
-1840
-1884
-1887
-1918
-1880
-1867
-1832
-1882
-1826
-1824
-1831
-1877
-1856
-1885
-1889
-1892
-1899
-1977
-1989
-1972
-1934
-1948
-1972
-2028
-2057
-2085
-2129
-2197
-2157
-2091
-2041
-2072
-2064
-2128
-2157
-2174
-2164
-2168
-2089
-2052
-2051
-2086
-2122
-2167
-2150
-2123
-2119
-2160
-2108
-2093
-2109
-2116
-2126
-2158
-2109
-2107
-2106
-2180
-2150
-2131
-2104
-2089
-2096
-2114
-2116
-2139
-2162
-2194
-2176
-2158
-2169
-2220
-2262
-2362
-2422
-2455
-2347
-2175
-1879
-1622
-1357
-1154
-951
-746
-477
-220
18
211
266
112
-113
-334
-554
-784
-994
-1212
-1441
-1748
-1954
-2107
-2200
-2205
-2192
-2201
-2196
-2194
-2175
-2204
-2141
-2082
-2067
-2072
-2090
-2141
-2139
-2152
-2126
-2169
-2100
-2070
-2062
-2104
-2132
-2161
-2149
-2137
-2121
-2153
-2099
-2096
-2092
-2132
-2092
-2101
-2109
-2083
-2075
-2146
-2119
-2086
-2051
-2050
-2047
-2054
-2063
-2082
-2084
-2136
-2102
-2019
-1977
-1991
-1979
-2034
-2059
-2051
-2022
-2033
-1971
-1937
-1921
-1959
-1990
-2009
-2010
-2003
-1950
-1981
-1951
-1947
-1946
-1969
-1933
-1931
-1907
-1908
-1899
-1977
-1946
-1896
-1861
-1864
-1830
-1873
-1860
-1894
-1899
-1915
-1857
-1811
-1766
-1749
-1748
-1786
-1807
-1799
-1756
-1764
-1713
-1649
-1644
-1666
-1721
-1733
-1701
-1671
-1638
-1672
-1656
-1677
-1671
-1703
-1691
-1696
-1737
-1706
-1711
-1787
-1815
-1795
-1759
-1774
-1786
-1829
-1850
-1920
-1977
-2037
-2014
-1994
-1991
-2018
-2021
-2086
-2125
-2158
-2120
-2149
-2102
-2066
-2052
-2094
-2137
-2162
-2140
-2132
-2098
-2136
-2116
-2091
-2102
-2131
-2127
-2115
-2112
-2112
-2106
-2157
-2146
-2125
-2079
-2072
-2070
-2095
-2104
-2136
-2147
-2176
-2142
-2091
-2050
-2049
-2066
-2122
-2153
-2160
-2142
-2159
-2115
-2058
-2041
-2079
-2133
-2166
-2141
-2134
-2116
-2154
-2117
-2083
-2083
-2126
-2114
-2134
-2133
-2105
-2077
-2147
-2162
-2149
-2092
-2104
-2073
-2096
-2105
-2139
-2144
-2167
-2135
-2089
-2064
-2067
-2069
-2120
-2162
-2163
-2151
-2182
-2126
-2059
-2053
-2092
-2136
-2140
-2139
-2125
-2100
-2146
-2111
-2072
-2048
-2055
-2026
-2027
-2023
-1961
-1929
-1976
-1947
-1903
-1867
-1827
-1830
-1866
-1853
-1872
-1901
-1930
-1864
-1827
-1795
-1807
-1830
-1884
-1939
-1946
-1916
-1973
-1927
-1901
-1918
-1947
-2009
-2072
-2098
-2075
-2060
-2119
-2119
-2091
-2086
-2114
-2111
-2107
-2119
-2096
-2106
-2186
-2152
-2127
-2092
-2081
-2065
-2104
-2117
-2136
-2131
-2171
-2155
-2086
-2045
-2052
-2076
-2127
-2171
-2144
-2113
-2147
-2131
-2081
-2045
-2091
-2122
-2132
-2145
-2129
-2101
-2116
-2138
-2167
-2220
-2277
-2304
-2346
-2381
-2391
-2298
-2165
-1950
-1680
-1391
-1142
-881
-656
-455
-246
-45
149
232
148
-24
-269
-514
-777
-1054
-1274
-1498
-1702
-1899
-2061
-2146
-2197
-2227
-2239
-2227
-2176
-2139
-2144
-2113
-2092
-2117
-2106
-2103
-2115
-2109
-2091
-2075
-2145
-2171
-2134
-2118
-2085
-2082
-2099
-2131
-2173
-2159
-2189
-2152
-2109
-2066
-2059
-2065
-2102
-2139
-2146
-2119
-2134
-2095
-2044
-2026
-2069
-2099
-2102
-2112
-2082
-2052
-2093
-2054
-2019
-2014
-2034
-2028
-2021
-2017
-2002
-1992
-2018
-2047
-1992
-1951
-1961
-1932
-1960
-1982
-1991
-1982
-2013
-1997
-1937
-1901
-1889
-1904
-1950
-1985
-1976
-1926
-1951
-1935
-1849
-1856
-1855
-1900
-1894
-1897
-1861
-1827
-1866
-1834
-1810
-1804
-1812
-1804
-1787
-1781
-1767
-1719
-1774
-1784
-1731
-1641
-1634
-1641
-1657
-1674
-1686
-1691
-1727
-1710
-1654
-1634
-1641
-1651
-1697
-1746
-1785
-1757
-1787
-1779
-1742
-1744
-1781
-1824
-1879
-1914
-1919
-1936
-1969
-1987
-1996
-2017
-2056
-2060
-2058
-2086
-2083
-2103
-2167
-2160
-2113
-2088
-2073
-2060
-2085
-2105
-2116
-2139
-2176
-2157
-2103
-2038
-2039
-2085
-2127
-2158
-2152
-2138
-2146
-2119
-2049
-2061
-2092
-2115
-2143
-2131
-2114
-2086
-2101
-2111
-2107
-2121
-2113
-2096
-2096
-2122
-2093
-2082
-2154
-2168
-2114
-2097
-2075
-2088
-2074
-2126
-2126
-2162
-2193
-2139
-2084
-2049
-2041
-2054
-2109
-2172
-2137
-2120
-2147
-2112
-2068
-2053
-2063
-2116
-2144
-2170
-2118
-2093
-2122
-2122
-2090
-2108
-2123
-2103
-2103
-2106
-2104
-2121
-2136
-2167
-2132
-2113
-2087
-2076
-2091
-2100
-2123
-2152
-2176
-2158
-2087
-2055
-2041
-2074
-2111
-2149
-2164
-2131
-2146
-2137
-2072
-2034
-2076
-2105
-2143
-2152
-2114
-2094
-2121
-2124
-2097
-2090
-2098
-2107
-2112
-2112
-2099
-2105
-2109
-2139
-2105
-2097
-2052
-2064
-2071
-2081
-2074
-2077
-2090
-2056
-1975
-1915
-1893
-1892
-1930
-1962
-1929
-1904
-1889
-1872
-1802
-1776
-1811
-1843
-1867
-1894
-1857
-1842
-1864
-1883
-1864
-1875
-1904
-1906
-1922
-1944
-1953
-1956
-2022
-2082
-2044
-2028
-2034
-2056
-2061
-2097
-2131
-2141
-2160
-2167
-2086
-2066
-2064
-2069
-2105
-2146
-2163
-2135
-2136
-2141
-2086
-2042
-2067
-2110
-2130
-2130
-2111
-2101
-2108
-2132
-2089
-2107
-2112
-2110
-2106
-2118
-2101
-2107
-2137
-2150
-2126
-2087
-2071
-2082
-2103
-2171
-2237
-2259
-2356
-2403
-2376
-2337
-2254
-2086
-1904
-1712
-1472
-1194
-964
-711
-426
-179
34
215
234
90
-108
-313
-545
-787
-968
-1223
-1425
-1654
-1888
-2096
-2195
-2213
-2257
-2271
-2184
-2142
-2111
-2090
-2072
-2099
-2106
-2161
-2168
-2178
-2107
-2061
-2037
-2076
-2089
-2152
-2175
-2142
-2132
-2136
-2084
-2062
-2096
-2121
-2152
-2147
-2107
-2091
-2092
-2109
-2072
-2073
-2084
-2087
-2072
-2090
-2069
-2053
-2087
-2140
-2064
-2043
-2009
-2017
-2026
-2043
-2052
-2078
-2093
-2096
-1991
-1949
-1922
-1961
-1977
-2035
-2032
-2012
-1992
-2021
-1929
-1921
-1933
-1968
-1976
-1985
-1977
-1929
-1939
-1942
-1910
-1909
-1906
-1916
-1894
-1894
-1907
-1864
-1906
-1944
-1897
-1851
-1815
-1811
-1822
-1843
-1823
-1850
-1843
-1829
-1762
-1687
-1696
-1690
-1721
-1767
-1744
-1712
-1689
-1697
-1607
-1591
-1620
-1649
-1676
-1702
-1686
-1676
-1679
-1734
-1695
-1717
-1719
-1739
-1737
-1767
-1790
-1792
-1831
-1909
-1879
-1867
-1875
-1920
-1956
-2008
-2069
-2098
-2102
-2127
-2074
-2042
-2046
-2062
-2095
-2162
-2169
-2129
-2132
-2128
-2061
-2037
-2069
-2134
-2117
-2124
-2115
-2101
-2117
-2131
-2080
-2099
-2098
-2089
-2065
-2092
-2098
-2104
-2129
-2177
-2140
-2113
-2056
-2076
-2076
-2107
-2107
-2128
-2159
-2156
-2076
-2043
-2052
-2065
-2112
-2149
-2132
-2144
-2136
-2126
-2064
-2052
-2072
-2134
-2138
-2152
-2129
-2104
-2086
-2149
-2099
-2097
-2087
-2093
-2109
-2101
-2090
-2094
-2131
-2192
-2108
-2082
-2057
-2072
-2082
-2115
-2140
-2144
-2145
-2174
-2084
-2063
-2034
-2057
-2107
-2183
-2187
-2127
-2116
-2143
-2074
-2044
-2069
-2119
-2124
-2131
-2116
-2099
-2114
-2114
-2093
-2094
-2097
-2117
-2104
-2117
-2107
-2094
-2105
-2196
-2128
-2085
-2050
-2063
-2084
-2118
-2132
-2149
-2169
-2187
-2099
-2059
-2045
-2067
-2081
-2149
-2139
-2129
-2122
-2139
-2069
-2074
-2069
-2121
-2140
-2149
-2130
-2109
-2109
-2137
-2077
-2087
-2107
-2111
-2097
-2107
-2093
-2084
-2154
-2177
-2123
-2097
-2059
-2056
-2076
-2114
-2126
-2143
-2144
-2176
-2092
-2062
-2037
-2070
-2089
-2121
-2120
-2089
-2048
-2045
-1944
-1903
-1907
-1956
-1937
-1942
-1906
-1880
-1858
-1884
-1837
-1849
-1859
-1860
-1827
-1850
-1833
-1837
-1862
-1922
-1902
-1869
-1857
-1889
-1904
-1942
-1979
-2017
-2027
-2075
-2035
-2009
-2006
-2044
-2081
-2144
-2157
-2136
-2112
-2129
-2079
-2042
-2065
-2108
-2128
-2136
-2129
-2107
-2112
-2133
-2089
-2089
-2104
-2112
-2094
-2121
-2094
-2107
-2131
-2197
-2127
-2081
-2044
-2084
-2064
-2088
-2109
-2137
-2159
-2164
-2076
-2052
-2049
-2072
-2134
-2196
-2253
-2269
-2301
-2376
-2367
-2374
-2274
-2130
-1906
-1690
-1426
-1175
-928
-722
-481
-234
38
230
269
111
-84
-326
-557
-841
-1021
-1211
-1390
-1622
-1843
-2094
-2214
-2260
-2240
-2244
-2161
-2108
-2061
-2077
-2105
-2174
-2149
-2133
-2104
-2122
-2045
-2039
-2056
-2131
-2135
-2136
-2108
-2103
-2101
-2144
-2119
-2118
-2119
-2131
-2094
-2091
-2084
-2077
-2113
-2172
-2119
-2085
-2036
-2045
-2049
-2095
-2104
-2119
-2100
-2155
-2069
-2015
-1994
-2031
-2034
-2077
-2077
-2076
-2025
-2040
-1957
-1937
-1945
-1997
-2024
-2021
-2003
-1959
-1952
-1996
-1951
-1954
-1956
-1953
-1946
-1966
-1953
-1934
-1958
-2017
-1945
-1923
-1875
-1888
-1867
-1898
-1896
-1907
-1921
-1934
-1837
-1807
-1776
-1782
-1821
-1882
-1864
-1834
-1787
-1800
-1754
-1675
-1694
-1741
-1729
-1740
-1714
-1707
-1682
-1704
-1662
-1655
-1634
-1647
-1637
-1679
-1669
-1689
-1702
-1773
-1727
-1697
-1690
-1709
-1734
-1772
-1813
-1852
-1859
-1929
-1860
-1866
-1873
-1922
-1989
-2062
-2071
-2083
-2068
-2092
-2056
-2041
-2051
-2116
-2119
-2128
-2124
-2096
-2091
-2134
-2102
-2111
-2075
-2094
-2074
-2121
-2098
-2109
-2103
-2180
-2131
-2100
-2067
-2060
-2068
-2107
-2124
-2136
-2150
-2174
-2082
-2071
-2044
-2056
-2101
-2157
-2147
-2129
-2113
-2157
-2089
-2069
-2069
-2116
-2120
-2157
-2126
-2072
-2086
-2133
-2106
-2094
-2082
-2107
-2087
-2084
-2075
-2107
-2125
-2189
-2116
-2089
-2081
-2088
-2064
-2109
-2126
-2177
-2148
-2167
-2093
-2067
-2018
-2059
-2105
-2164
-2168
-2142
-2095
-2156
-2082
-2066
-2066
-2102
-2122
-2113
-2107
-2098
-2077
-2132
-2104
-2110
-2094
-2097
-2071
-2102
-2102
-2082
-2137
-2187
-2131
-2073
-2044
-2053
-2052
-2081
-2111
-2126
-2136
-2170
-2086
-2057
-2037
-2071
-2093
-2164
-2154
-2136
-2091
-2155
-2087
-2054
-2047
-2117
-2100
-2142
-2125
-2098
-2071
-2134
-2091
-2118
-2082
-2117
-2096
-2104
-2105
-2105
-2097
-2202
-2139
-2096
-2057
-2074
-2057
-2092
-2142
-2139
-2160
-2169
-2101
-2066
-2044
-2052
-2094
-2147
-2157
-2136
-2115
-2149
-2082
-2072
-2063
-2132
-2132
-2156
-2121
-2111
-2087
-2137
-2097
-2125
-2087
-2105
-2088
-2102
-2094
-2106
-2123
-2189
-2149
-2109
-2052
-2049
-2044
-2100
-2124
-2166
-2139
-2186
-2105
-2044
-2016
-2046
-2090
-2155
-2138
-2139
-2116
-2147
-2060
-2061
-2066
-2124
-2116
-2095
-2076
-2035
-2006
-2026
-1991
-1974
-1947
-1907
-1890
-1897
-1889
-1860
-1879
-1932
-1872
-1828
-1783
-1825
-1818
-1836
-1857
-1896
-1874
-1919
-1861
-1861
-1832
-1874
-1911
-1994
-2023
-2017
-1994
-2056
-2012
-2014
-2007
-2079
-2120
-2131
-2124
-2106
-2093
-2141
-2093
-2094
-2087
-2093
-2072
-2097
-2101
-2089
-2114
-2189
-2123
-2104
-2067
-2064
-2030
-2086
-2132
-2142
-2147
-2176
-2090
-2047
-2008
-2059
-2082
-2144
-2161
-2129
-2112
-2152
-2072
-2052
-2053
-2117
-2116
-2189
-2224
-2242
-2257
-2363
-2389
-2403
-2302
-2122
-1854
-1646
-1408
-1162
-941
-789
-515
-213
64
266
321
140
-136
-351
-569
-807
-949
-1139
-1369
-1604
-1841
-2124
-2258
-2262
-2201
-2244
-2156
-2090
-2077
-2140
-2112
-2134
-2124
-2094
-2071
-2132
-2091
-2119
-2072
-2101
-2089
-2096
-2106
-2105
-2102
-2189
-2136
-2092
-2075
-2081
-2067
-2084
-2132
-2153
-2141
-2139
-2087
-2051
-2017
-2038
-2064
-2105
-2123
-2089
-2052
-2102
-2031
-2003
-1990
-2042
-2060
-2084
-2057
-2014
-2006
-2048
-2011
-2002
-1964
-1997
-1954
-1966
-1964
-1976
-1981
-2042
-1991
-1961
-1914
-1912
-1902
-1954
-1969
-1996
-1956
-1999
-1920
-1861
-1823
-1849
-1886
-1934
-1930
-1897
-1872
-1887
-1828
-1799
-1815
-1828
-1839
-1836
-1866
-1816
-1776
-1816
-1773
-1761
-1726
-1710
-1707
-1705
-1692
-1681
-1697
-1759
-1701
-1641
-1599
-1644
-1622
-1668
-1700
-1716
-1724
-1744
-1684
-1667
-1649
-1698
-1732
-1800
-1840
-1819
-1786
-1872
-1849
-1856
-1870
-1949
-1989
-2036
-2036
-2032
-2047
-2093
-2076
-2086
-2094
-2087
-2064
-2076
-2118
-2094
-2125
-2179
-2140
-2087
-2051
-2057
-2064
-2083
-2115
-2136
-2135
-2187
-2107
-2044
-2037
-2070
-2076
-2126
-2141
-2122
-2104
-2129
-2061
-2052
-2050
-2077
-2100
-2128
-2116
-2084
-2067
-2141
-2131
-2111
-2071
-2087
-2076
-2091
-2086
-2085
-2093
-2171
-2148
-2102
-2061
-2083
-2064
-2061
-2129
-2125
-2129
-2157
-2112
-2054
-2027
-2031
-2092
-2138
-2167
-2139
-2103
-2121
-2093
-2051
-2074
-2118
-2093
-2115
-2114
-2095
-2073
-2110
-2096
-2112
-2082
-2094
-2077
-2089
-2086
-2109
-2093
-2175
-2148
-2086
-2046
-2069
-2051
-2087
-2103
-2141
-2139
-2151
-2114
-2055
-2024
-2054
-2094
-2127
-2167
-2131
-2094
-2120
-2081
-2034
-2033
-2099
-2117
-2110
-2115
-2091
-2076
-2129
-2114
-2103
-2091
-2096
-2072
-2086
-2106
-2101
-2107
-2175
-2137
-2094
-2044
-2051
-2062
-2075
-2110
-2135
-2136
-2150
-2104
-2066
-2033
-2059
-2098
-2141
-2151
-2154
-2102
-2120
-2093
-2080
-2053
-2086
-2106
-2138
-2122
-2099
-2083
-2122
-2116
-2104
-2081
-2072
-2091
-2081
-2072
-2084
-2106
-2165
-2154
-2102
-2064
-2052
-2062
-2088
-2116
-2142
-2132
-2172
-2121
-2075
-2051
-2050
-2068
-2135
-2165
-2137
-2104
-2140
-2102
-2051
-2051
-2096
-2124
-2119
-2104
-2100
-2089
-2118
-2115
-2103
-2118
-2102
-2092
-2078
-2107
-2112
-2101
-2152
-2164
-2090
-2051
-2057
-2089
-2076
-2106
-2160
-2139
-2164
-2113
-2055
-2033
-2049
-2105
-2146
-2164
-2136
-2112
-2126
-2093
-2077
-2051
-2088
-2101
-2119
-2116
-2103
-2072
-2122
-2122
-2109
-2084
-2094
-2096
-2106
-2096
-2104
-2109
-2142
-2142
-2084
-2045
-2047
-2049
-2056
-2090
-2089
-2063
-2031
-1975
-1920
-1881
-1866
-1903
-1922
-1927
-1884
-1843
-1860
-1838
-1799
-1802
-1827
-1841
-1858
-1852
-1838
-1816
-1852
-1873
-1886
-1866
-1878
-1889
-1895
-1939
-1961
-1977
-2069
-2087
-2045
-2039
-2033
-2064
-2079
-2114
-2145
-2131
-2142
-2122
-2066
-2041
-2046
-2101
-2125
-2153
-2117
-2091
-2129
-2109
-2068
-2053
-2075
-2128
-2112
-2109
-2090
-2088
-2103
-2099
-2102
-2106
-2110
-2078
-2086
-2111
-2082
-2103
-2149
-2144
-2091
-2029
-2040
-2069
-2122
-2208
-2283
-2321
-2392
-2396
-2369
-2255
-2077
-1897
-1677
-1461
-1223
-925
-699
-461
-195
43
241
276
124
-100
-302
-482
-754
-1026
-1211
-1403
-1591
-1864
-2072
-2209
-2218
-2214
-2251
-2228
-2126
-2082
-2053
-2049
-2062
-2116
-2141
-2132
-2134
-2116
-2064
-2022
-2050
-2077
-2123
-2146
-2126
-2091
-2135
-2125
-2071
-2064
-2099
-2133
-2107
-2098
-2102
-2076
-2076
-2121
-2080
-2069
-2044
-2048
-2056
-2060
-2042
-2069
-2100
-2121
-2037
-1990
-1969
-1995
-1991
-2038
-2072
-2059
-2047
-2028
-1944
-1921
-1924
-1956
-2002
-2006
-1997
-1986
-1951
-1956
-1937
-1916
-1936
-1949
-1953
-1956
-1936
-1906
-1946
-1942
-1925
-1886
-1876
-1866
-1866
-1859
-1864
-1871
-1903
-1921
-1830
-1791
-1769
-1767
-1782
-1833
-1843
-1811
-1798
-1784
-1725
-1663
-1641
-1716
-1719
-1744
-1712
-1669
-1662
-1667
-1599
-1611
-1636
-1667
-1675
-1666
-1644
-1658
-1684
-1736
-1734
-1711
-1706
-1723
-1728
-1756
-1779
-1801
-1885
-1911
-1875
-1876
-1887
-1942
-1991
-2048
-2077
-2087
-2105
-2099
-2039
-2031
-2034
-2095
-2117
-2151
-2118
-2095
-2106
-2109
-2047
-2062
-2099
-2101
-2095
-2112
-2094
-2089
-2099
-2124
-2080
-2111
-2066
-2071
-2077
-2101
-2097
-2089
-2137
-2160
-2085
-2042
-2039
-2056
-2049
-2099
-2128
-2121
-2150
-2121
-2046
-2034
-2039
-2072
-2123
-2149
-2141
-2105
-2099
-2111
-2054
-2067
-2072
-2092
-2090
-2105
-2089
-2062
-2093
-2131
-2109
-2091
-2071
-2065
-2059
-2080
-2083
-2107
-2130
-2149
-2083
-2061
-2029
-2055
-2065
-2109
-2131
-2114
-2122
-2135
-2061
-2027
-2049
-2065
-2098
-2124
-2116
-2096
-2101
-2090
-2046
-2066
-2089
-2129
-2108
-2122
-2109
-2086
-2081
-2136
-2119
-2092
-2071
-2048
-2082
-2088
-2069
-2091
-2148
-2167
-2084
-2049
-2043
-2052
-2079
-2123
-2136
-2141
-2131
-2128
-2057
-2062
-2027
-2065
-2082
-2142
-2117
-2094
-2103
-2114
-2054
-2060
-2071
-2103
-2086
-2094
-2082
-2084
-2104
-2126
-2097
-2076
-2065
-2081
-2066
-2096
-2096
-2110
-2124
-2154
-2084
-2051
-2024
-2047
-2070
-2126
-2126
-2122
-2119
-2121
-2070
-2021
-2008
-2086
-2130
-2157
-2121
-2100
-2092
-2116
-2039
-2085
-2086
-2121
-2107
-2110
-2085
-2067
-2086
-2140
-2104
-2096
-2054
-2081
-2059
-2089
-2075
-2112
-2149
-2175
-2107
-2059
-2035
-2051
-2064
-2121
-2126
-2113
-2137
-2172
-2069
-2041
-2018
-2057
-2102
-2114
-2064
-2039
-1997
-1973
-1906
-1906
-1912
-1937
-1891
-1902
-1857
-1842
-1832
-1879
-1819
-1845
-1802
-1817
-1812
-1832
-1832
-1856
-1881
-1931
-1885
-1836
-1849
-1896
-1892
-1958
-1996
-2036
-2039
-2054
-1998
-1994
-2026
-2083
-2124
-2154
-2146
-2111
-2079
-2132
-2055
-2058
-2069
-2087
-2100
-2110
-2089
-2078
-2087
-2149
-2097
-2102
-2063
-2078
-2062
-2096
-2111
-2121
-2143
-2182
-2087
-2079
-2037
-2057
-2047
-2101
-2138
-2143
-2114
-2149
-2064
-2024
-2027
-2104
-2171
-2243
-2257
-2287
-2323
-2403
-2362
-2292
-2116
-1904
-1651
-1429
-1189
-941
-701
-516
-271
-4
255
302
152
-76
-297
-541
-781
-1070