-0.259094	
-0.254974	
-0.25177	
-0.24826	
-0.242157	
-0.235138	
-0.227661	
-0.222626	
-0.218811	
-0.218201	
-0.216217	
-0.214844	
-0.210724	
-0.205231	
-0.198212	
-0.191956	
-0.187073	
-0.183105	
-0.180817	
-0.175781	
-0.170898	
-0.163574	
-0.155182	
-0.148926	
-0.144196	
-0.141754	
-0.140076	
-0.136719	
-0.132599	
-0.125885	
-0.119629	
-0.113983	
-0.109863	
-0.108337	
-0.105591	
-0.102692	
-0.0975037	
-0.0917053	
-0.0840759	
-0.0779724	
-0.0738525	
-0.0714111	
-0.0692749	
-0.0656128	
-0.0608826	
-0.0541687	
-0.04776	
-0.042572	
-0.0395203	
-0.0398254	
-0.0392151	
-0.0393677	
-0.0372314	
-0.0328064	
-0.027771	
-0.0239563	
-0.0222778	
-0.0205994	
-0.022583	
-0.0195312	
-0.0175476	
-0.0132751	
-0.00762939	
-0.00259399	
-0.000305176	
0.00183105	
0.00244141	
0.00305176	
0.00671387	
0.0114441	
0.017395	
0.0224304	
0.0259399	
0.0267029	
0.0265503	
0.0270081	
0.0311279	
0.0361633	
0.0416565	
0.0471497	
0.0509644	
0.0537109	
0.0559998	
0.058136	
0.0636292	
0.0700378	
0.0759888	
0.0811768	
0.0846863	
0.085144	
0.085144	
0.0854492	
0.087738	
0.0900269	
0.0923157	
0.0907898	
0.0880432	
0.0822449	
0.0749207	
0.067749	
0.0624084	
0.0582886	
0.0540161	
0.0491333	
0.0408936	
0.0314331	
0.0195312	
0.00930786	
0.00198364	
-0.00579834	
-0.0151062	
-0.0250244	
-0.0372314	
-0.0527954	
-0.0697327	
-0.0843811	
-0.098114	
-0.108185	
-0.115662	
-0.122223	
-0.128174	
-0.136871	
-0.144196	
-0.149536	
-0.152435	
-0.152283	
-0.149841	
-0.147247	
-0.147247	
-0.147247	
-0.1474	
-0.1474	
-0.144196	
-0.13916	
-0.133209	
-0.128479	
-0.125122	
-0.125275	
-0.124969	
-0.123291	
-0.121155	
-0.116272	
-0.110779	
-0.106201	
-0.103607	
-0.103149	
-0.103149	
-0.103149	
-0.100555	
-0.0961304	
-0.091095	
-0.0874329	
-0.0860596	
-0.0860596	
-0.0860596	
-0.0856018	
-0.0830078	
-0.0793457	
-0.0741577	
-0.0714111	
-0.0692749	
-0.0697327	
-0.0717163	
-0.0715637	
-0.0691223	
-0.0657654	
-0.0613403	
-0.0584412	
-0.0566101	
-0.0566101	
-0.0592041	
-0.0592041	
-0.0566101	
-0.0535583	
-0.0495911	
-0.0456238	
-0.0442505	
-0.0447083	
-0.0469971	
-0.0466919	
-0.0450134	
-0.0422668	
-0.0389099	
-0.0354004	
-0.0346375	
-0.0352478	
-0.0372314	
-0.0372314	
-0.0369263	
-0.0337219	
-0.0300598	
-0.0273132	
-0.0273132	
-0.0276184	
-0.0300598	
-0.0292969	
-0.0294495	
-0.0265503	
-0.0227356	
-0.019989	
-0.0198364	
-0.0209045	
-0.0221252	
-0.0248718	
-0.022583	
-0.019989	
-0.0167847	
-0.0149536	
-0.0143433	
-0.0149536	
-0.017395	
-0.0175476	
-0.0175476	
-0.0149536	
-0.0126648	
-0.010376	
-0.0102234	
-0.0109863	
-0.0128174	
-0.0149536	
-0.0123596	
-0.010376	
-0.00747681	
-0.0050354	
-0.00549316	
-0.00717163	
-0.00961304	
-0.0102234	
-0.00991821	
-0.00778198	
-0.00534058	
-0.00289917	
-0.00274658	
-0.00457764	
-0.00701904	
-0.00778198	
-0.00747681	
-0.00488281	
-0.00152588	
-0.000457764	
-0.000457764	
-0.00106812	
-0.00473022	
-0.00534058	
-0.00518799	
-0.00320435	
-0.000610352	
0.00228882	
0.00244141	
0.000305176	
-0.000152588	
0.00213623	
0.00762939	
0.0169373	
0.0270081	
0.0366211	
0.0442505	
0.0515747	
0.0567627	
0.0634766	
0.0708008	
0.0805664	
0.0895691	
0.0968933	
0.102234	
0.104828	
0.10498	
0.10498	
0.107727	
0.109253	
0.110626	
0.112305	
0.108948	
0.104218	
0.098114	
0.0924683	
0.0871277	
0.0819397	
0.0772095	
0.0712585	
0.0631714	
0.050354	
0.0390625	
0.0289917	
0.0189209	
0.00915527	
0.00167847	
-0.00747681	
-0.0175476	
-0.0297546	
-0.0408936	
-0.0495911	
-0.0538635	
-0.0564575	
-0.0559998	
-0.0540161	
-0.0564575	
-0.058136	
-0.0601196	
-0.0614929	
-0.059967	
-0.057373	
-0.0543213	
-0.0509644	
-0.0492859	
-0.0518799	
-0.0524902	
-0.0541687	
-0.0515747	
-0.0486755	
-0.0448608	
-0.0419617	
-0.0421143	
-0.0427246	
-0.0444031	
-0.0444031	
-0.0444031	
-0.0410461	
-0.037384	
-0.0346375	
-0.03479	
-0.0354004	
-0.0372314	
-0.0379944	
-0.0372314	
-0.0346375	
-0.0312805	
-0.0288391	
-0.0279236	
-0.0314331	
-0.0372314	
-0.0469971	
-0.0570679	
-0.0692749	
-0.0823975	
-0.0967407	
-0.113831	
-0.124969	
-0.117645	
-0.0872803	
-0.0309753	
0.0444031	
0.133972	
0.233459	
0.337524	
0.444946	
0.552368	
0.661926	
0.772552	
0.86792	
0.932312	
0.956268	
0.941162	
0.888977	
0.812988	
0.719604	
0.61264	
0.500031	
0.381622	
0.258026	
0.132904	
0.0146484	
-0.0883484	
-0.167847	
-0.225525	
-0.262756	
-0.284119	
-0.294342	
-0.298615	
-0.299225	
-0.295715	
-0.290833	
-0.284119	
-0.276642	
-0.267334	
-0.258331	
-0.251923	
-0.248108	
-0.246277	
-0.24292	
-0.237579	
-0.232544	
-0.225525	
-0.218964	
-0.215912	
-0.213623	
-0.213165	
-0.211487	
-0.207977	
-0.201111	
-0.193787	
-0.187531	
-0.181732	
-0.178223	
-0.175934	
-0.172119	
-0.166626	
-0.159149	
-0.15152	
-0.14389	
-0.140381	
-0.137939	
-0.135193	
-0.133057	
-0.128326	
-0.122528	
-0.115051	
-0.108795	
-0.105591	
-0.103302	
-0.101013	
-0.098877	
-0.0938416	
-0.0878906	
-0.0810242	
-0.0735474	
-0.0688171	
-0.0663757	
-0.0637817	
-0.0614929	
-0.0570679	
-0.0509644	
-0.0450134	
-0.0401306	
-0.0369263	
-0.0369263	
-0.0372314	
-0.0369263	
-0.0346375	
-0.030365	
-0.025177	
-0.0202942	
-0.0177002	
-0.0177002	
-0.0177002	
-0.0175476	
-0.0143433	
-0.00961304	
-0.00442505	
0.00167847	
0.00488281	
0.00473022	
0.00457764	
0.00701904	
0.0102234	
0.0161743	
0.0219727	
0.0257874	
0.0292969	
0.0292969	
0.0286865	
0.0302124	
0.0334167	
0.0392151	
0.0453186	
0.0509644	
0.055542	
0.058136	
0.0604248	
0.0639343	
0.0688171	
0.0750732	
0.0805664	
0.0848389	
0.0878906	
0.0878906	
0.0878906	
0.087738	
0.0874329	
0.0897217	
0.0900269	
0.0878906	
0.083313	
0.0770569	
0.0691223	
0.0627136	
0.0563049	
0.0512695	
0.0463867	
0.0410461	
0.0340271	
0.0233459	
0.0117493	
0.00183105	
-0.00808716	
-0.0149536	
-0.0248718	
-0.0354004	
-0.0486755	
-0.065155	
-0.0819397	
-0.098114	
-0.110321	
-0.11795	
-0.124817	
-0.1297	
-0.135193	
-0.141907	
-0.148468	
-0.15213	
-0.15213	
-0.151978	
-0.149384	
-0.145416	
-0.144806	
-0.144958	
-0.144958	
-0.144043	
-0.140381	
-0.135345	
-0.130615	
-0.12558	
-0.122833	
-0.122681	
-0.122986	
-0.121155	
-0.118713	
-0.113525	
-0.108643	
-0.103607	
-0.101624	
-0.100861	
-0.100708	
-0.100861	
-0.0990295	
-0.0950623	
-0.0904846	
-0.0863647	
-0.0836182	
-0.0836182	
-0.0837708	
-0.0840759	
-0.0816345	
-0.0779724	
-0.0740051	
-0.070343	
-0.068512	
-0.0688171	
-0.0688171	
-0.0691223	
-0.0671387	
-0.0640869	
-0.0596619	
-0.0567627	
-0.0544739	
-0.0541687	
-0.0566101	
-0.0564575	
-0.0546265	
-0.0509644	
-0.0473022	
-0.0444031	
-0.0431824	
-0.0440979	
-0.045929	
-0.0465393	
-0.0440979	
-0.0413513	
-0.0376892	
-0.0346375	
-0.03479	
-0.0341797	
-0.0369263	
-0.0369263	
-0.0361633	
-0.0326538	
-0.0291443	
-0.0265503	
-0.0250244	
-0.0267029	
-0.0292969	
-0.0299072	
-0.0288391	
-0.0253296	
-0.022583	
-0.0196838	
-0.0198364	
-0.019989	
-0.0224304	
-0.022583	
-0.0227356	
-0.0198364	
-0.0167847	
-0.0143433	
-0.0123596	
-0.0149536	
-0.0172424	
-0.0169373	
-0.017395	
-0.0146484	
-0.0128174	
-0.0102234	
-0.00976562	
-0.0102234	
-0.0123596	
-0.0149536	
-0.0128174	
-0.010376	
-0.00762939	
-0.0050354	
-0.0050354	
-0.00717163	
-0.00976562	
-0.0102234	
-0.010376	
-0.00762939	
-0.00442505	
-0.00289917	
-0.00244141	
-0.00350952	
-0.00595093	
-0.00747681	
-0.00732422	
-0.00534058	
-0.00289917	
-0.000457764	
-0.000305176	
-0.00198364	
-0.00442505	
-0.0050354	
-0.00518799	
-0.00320435	
-0.000915527	
0.000305176	
0.00244141	
0.00213623	
0.00213623	
0.00656128	
0.0128174	
0.0218201	
0.0341797	
0.0434875	
0.0527954	
0.0590515	
0.0637817	
0.0709534	
0.0778198	
0.0854492	
0.0952148	
0.102386	
0.106964	
0.110016	
0.107727	
0.107422	
0.106964	
0.108032	
0.109711	
0.109863	
0.106659	
0.101624	
0.0944519	
0.0869751	
0.0796509	
0.0737	
0.0688171	
0.0628662	
0.0537109	
0.0413513	
0.0299072	
0.0172424	
0.00717163	
-0.000610352	
-0.00839233	
-0.017395	
-0.0276184	
-0.0372314	
-0.045929	
-0.0526428	
-0.0564575	
-0.0567627	
-0.0544739	
-0.0541687	
-0.0544739	
-0.0561523	
-0.058136	
-0.0595093	
-0.0588989	
-0.0558472	
-0.0521851	
-0.0492859	
-0.0489807	
-0.0491333	
-0.0518799	
-0.0520325	
-0.0518799	
-0.0486755	
-0.0450134	
-0.0418091	
-0.0418091	
-0.0416565	
-0.0439453	
-0.0445557	
-0.0422668	
-0.0402832	
-0.0372314	
-0.0346375	
-0.0344849	
-0.0352478	
-0.0366211	
-0.0370789	
-0.0372314	
-0.0343323	
-0.0315857	
-0.0289917	
-0.0299072	
-0.03479	
-0.0442505	
-0.0567627	
-0.0698853	
-0.0837708	
-0.0984192	
-0.113831	
-0.122681	
-0.115051	
-0.0854492	
-0.0328064	
0.0404358	
0.129852	
0.230865	
0.336609	
0.444336	
0.552216	
0.662231	
0.769043	
0.864258	
0.929413	
0.955963	
0.94162	
0.894318	
0.818634	
0.723572	
0.615845	
0.499725	
0.381012	
0.259247	
0.136871	
0.0184631	
-0.0828552	
-0.164795	
-0.223694	
-0.262909	
-0.284729	
-0.295105	
-0.296478	
-0.296173	
-0.293427	
-0.289917	
-0.285339	
-0.277405	
-0.269623	
-0.261993	
-0.253143	
-0.248108	
-0.244598	
-0.240784	
-0.238647	
-0.233765	
-0.227356	
-0.221252	
-0.215759	
-0.212555	
-0.210724	
-0.211182	
-0.20813	
-0.202942	
-0.196991	
-0.188904	
-0.182343	
-0.176239	
-0.172424	
-0.16983	
-0.166016	
-0.161285	
-0.154572	
-0.147247	
-0.140076	
-0.135651	
-0.132599	
-0.131836	
-0.129547	
-0.124512	
-0.118256	
-0.112457	
-0.105438	
-0.101013	
-0.0984192	
-0.0967407	
-0.0933838	
-0.0886536	
-0.0820923	
-0.0743103	
-0.0682068	
-0.0631714	
-0.0616455	
-0.0592041	
-0.0569153	
-0.0521851	
-0.0471497	
-0.0415039	
-0.037384	
-0.0346375	
-0.0349426	
-0.0370789	
-0.0363159	
-0.0328064	
-0.0291443	
-0.0241089	
-0.0192261	
-0.0164795	
-0.0149536	
-0.0151062	
-0.014801	
-0.0119019	
-0.00671387	
-0.00106812	
0.00396729	
0.00717163	
0.00717163	
0.00732422	
0.00930786	
0.0128174	
0.017395	
0.0234985	
0.0285339	
0.0314331	
0.0314331	
0.0318909	
0.032196	
0.0370789	
0.0416565	
0.0488281	
0.0553894	
0.0604248	
0.0624084	
0.0640869	
0.0662231	
0.0714111	
0.0772095	
0.0822449	
0.0871277	
0.090332	
0.090332	
0.0897217	
0.0878906	
0.0880432	
0.0878906	
0.0874329	
0.0849915	
0.0801086	
0.072937	
0.0640869	
0.0556946	
0.0502014	
0.0442505	
0.0395203	
0.0335693	
0.0260925	
0.0143433	
0.0038147	
-0.00778198	
-0.0177002	
-0.0274658	
-0.0395203	
-0.0500488	
-0.0645447	
-0.080719	
-0.0965881	
-0.110779	
-0.120239	
-0.126801	
-0.130615	
-0.134583	
-0.139465	
-0.144196	
-0.150604	
-0.152893	
-0.153961	
-0.15152	
-0.147705	
-0.144653	
-0.142365	
-0.142212	
-0.142517	
-0.140686	
-0.137939	
-0.133057	
-0.128174	
-0.123444	
-0.120697	
-0.120392	
-0.120392	
-0.11795	
-0.115814	
-0.111084	
-0.106506	
-0.102386	
-0.100708	
-0.100098	
-0.101013	
-0.098877	
-0.0964355	
-0.0914001	
-0.0866699	
-0.0836182	
-0.0813293	
-0.0811768	
-0.0808716	
-0.0813293	
-0.0793457	
-0.075531	
-0.0717163	
-0.0666809	
-0.0663757	
-0.0660706	
-0.0662231	
-0.0665283	
-0.0640869	
-0.0613403	
-0.0569153	
-0.0543213	
-0.0518799	
-0.0535583	
-0.0541687	
-0.0543213	
-0.0534058	
-0.0498962	
-0.0457764	
-0.0436401	
-0.0419617	
-0.0419617	
-0.0445557	
-0.0444031	
-0.0437927	
-0.039978	
-0.0370789	
-0.0346375	
-0.032196	
-0.0346375	
-0.0367737	
-0.0372314	
-0.03479	
-0.0323486	
-0.0288391	
-0.0253296	
-0.0245667	
-0.0267029	
-0.0279236	
-0.0296021	
-0.0271606	
-0.0247192	
-0.0215149	
-0.0190735	
-0.0170898	
-0.0196838	
-0.0221252	
-0.022583	
-0.0219727	
-0.0189209	
-0.0151062	
-0.0126648	
-0.0125122	
-0.0149536	
-0.0175476	
-0.0172424	
-0.0175476	
-0.0151062	
-0.0119019	
-0.0102234	
-0.00823975	
-0.0100708	
-0.0123596	
-0.0125122	
-0.0126648	
-0.0102234	
-0.00762939	
-0.00473022	
-0.00534058	
-0.00595093	
-0.00839233	
-0.0102234	
-0.00930786	
-0.00717163	
-0.00442505	
-0.00259399	
-0.000915527	
-0.00274658	
-0.00549316	
-0.00747681	
-0.00717163	
-0.00442505	
-0.00228882	
-0.000610352	
0.00137329	
-0.000915527	
-0.00244141	
-0.00518799	
-0.00457764	
-0.00259399	
-0.000305176	
0.00289917	
0.00457764	
0.00717163	
0.00915527	
0.0137329	
0.0221252	
0.0320435	
0.0411987	
0.0532532	
0.0611877	
0.0662231	
0.0715637	
0.0776672	
0.0836182	
0.0927734	
0.100555	
0.107422	
0.110474	
0.111694	
0.110168	
0.107269	
0.107422	
0.107574	
0.108337	
0.107422	
0.103912	
0.0971985	
0.0883484	
0.0799561	
0.0727844	
0.0662231	
0.0604248	
0.0532532	
0.043335	
0.0318909	
0.0196838	
0.00701904	
-0.00305176	
-0.0120544	
-0.0198364	
-0.0274658	
-0.0349426	
-0.0444031	
-0.0515747	
-0.0564575	
-0.0592041	
-0.058136	
-0.0569153	
-0.0543213	
-0.0543213	
-0.0559998	
-0.057373	
-0.0590515	
-0.0570679	
-0.0544739	
-0.0509644	
-0.0474548	
-0.0466919	
-0.0473022	
-0.0494385	
-0.0515747	
-0.0494385	
-0.0466919	
-0.043335	
-0.0401306	
-0.0393677	
-0.0404358	
-0.0419617	
-0.0421143	
-0.0418091	
-0.0396729	
-0.0364685	
-0.0326538	
-0.032196	
-0.0340271	
-0.0364685	
-0.0370789	
-0.0367737	
-0.0340271	
-0.030365	
-0.0296021	
-0.032959	
-0.0419617	
-0.0549316	
-0.0694275	
-0.0857544	
-0.100861	
-0.115509	
-0.122681	
-0.114594	
-0.0845337	
-0.0332642	
0.0382996	
0.125885	
0.22583	
0.332336	
0.442352	
0.552673	
0.662079	
0.767975	
0.861511	
0.925903	
0.952301	
0.94162	
0.896606	
0.823212	
0.728149	
0.619965	
0.502777	
0.380707	
0.258636	
0.137329	
0.0212097	
-0.0790405	
-0.160675	
-0.221252	
-0.262451	
-0.287018	
-0.298309	
-0.299683	
-0.296326	
-0.290985	
-0.287476	
-0.282593	
-0.277863	
-0.271454	
-0.262909	
-0.254669	
-0.247498	
-0.242157	
-0.238495	
-0.236053	
-0.233612	
-0.228424	
-0.223846	
-0.217743	
-0.211639	
-0.20874	
-0.206299	
-0.206299	
-0.202942	
-0.198059	
-0.191193	
-0.184326	
-0.176697	
-0.171051	
-0.167542	
-0.164795	
-0.161591	
-0.156708	
-0.149689	
-0.142365	
-0.135651	
-0.132141	
-0.130463	
-0.127563	
-0.125122	
-0.12085	
-0.114746	
-0.108185	
-0.101624	
-0.096283	
-0.093689	
-0.0935364	
-0.0904846	
-0.0854492	
-0.0785828	
-0.0709534	
-0.0639343	
-0.0595093	
-0.0567627	
-0.0543213	
-0.0521851	
-0.0489807	
-0.0439453	
-0.0387573	
-0.03479	
-0.0325012	
-0.0320435	
-0.0343323	
-0.0317383	
-0.0300598	
-0.0265503	
-0.0215149	
-0.0166321	
-0.0151062	
-0.0151062	
-0.0149536	
-0.0125122	
-0.00946045	
-0.00473022	
0.00183105	
0.00656128	
0.00946045	
0.00930786	
0.0119019	
0.0128174	
0.0166321	
0.0213623	
0.0257874	
0.0311279	
0.0341797	
0.0340271	
0.0341797	
0.0363159	
0.040741	
0.0462341	
0.0535583	
0.0604248	
0.0639343	
0.0662231	
0.067749	
0.0706482	
0.0735474	
0.0788879	
0.0849915	
0.0900269	
0.0926208	
0.0918579	
0.0904846	
0.0878906	
0.0854492	
0.0843811	
0.0831604	
0.0796509	
0.0744629	
0.0654602	
0.0582886	
0.0483704	
0.0419617	
0.0369263	
0.0323486	
0.0262451	
0.0166321	
0.00686646	
-0.00549316	
-0.0184631	
-0.0297546	
-0.0421143	
-0.0518799	
-0.0640869	
-0.0782776	
-0.0935364	
-0.108948	
-0.120544	
-0.129242	
-0.13443	
-0.137329	
-0.140076	
-0.143127	
-0.14801	
-0.151978	
-0.154877	
-0.153656	
-0.150299	
-0.146484	
-0.142517	
-0.139923	
-0.139771	
-0.139771	
-0.137482	
-0.135193	
-0.130768	
-0.125885	
-0.121155	
-0.118256	
-0.11795	
-0.11795	
-0.115967	
-0.113373	
-0.109863	
-0.105133	
-0.0997925	
-0.0984192	
-0.0982666	
-0.0982666	
-0.0976562	
-0.0949097	
-0.090332	
-0.0852966	
-0.0816345	
-0.0788879	
-0.0785828	
-0.0785828	
-0.0787354	
-0.078125	
-0.0743103	
-0.0697327	
-0.0665283	
-0.0639343	
-0.0637817	
-0.0663757	
-0.0663757	
-0.0636292	
-0.059967	
-0.0559998	
-0.0524902	
-0.0517273	
-0.0520325	
-0.0537109	
-0.0540161	
-0.0517273	
-0.0486755	
-0.045166	
-0.0419617	
-0.0393677	
-0.0415039	
-0.0418091	
-0.0422668	
-0.0419617	
-0.0389099	
-0.03479	
-0.0325012	
-0.0318909	
-0.032196	
-0.0344849	
-0.0346375	
-0.0328064	
-0.0302124	
-0.0274658	
-0.0248718	
-0.0245667	
-0.0245667	
-0.0274658	
-0.0268555	
-0.0271606	
-0.0241089	
-0.0205994	
-0.0178528	
-0.0175476	
-0.0183105	
-0.0202942	
-0.0222778	
-0.0218201	
-0.0192261	
-0.0151062	
-0.0128174	
-0.0125122	
-0.014801	
-0.0167847	
-0.017395	
-0.0175476	
-0.0141907	
-0.0106812	
-0.00762939	
-0.00778198	
-0.0100708	
-0.012207	
-0.0125122	
-0.0123596	
-0.010376	
-0.00762939	
-0.00518799	
-0.00534058	
-0.00579834	
-0.00839233	
-0.010376	
-0.00961304	
-0.00686646	
-0.00289917	
-0.000915527	
-0.000305176	
-0.00259399	
-0.0050354	
-0.00747681	
-0.00610352	
-0.00442505	
-0.00198364	
-0.000305176	
0	
-0.0012207	
-0.00350952	
-0.00518799	
-0.0050354	
-0.00289917	
0.000152588	
0.00457764	
0.00869751	
0.0119019	
0.014801	
0.0213623	
0.0294495	
0.0396729	
0.0506592	
0.0611877	
0.0700378	
0.0752258	
0.0785828	
0.0836182	
0.0904846	
0.0976562	
0.105286	
0.110321	
0.112305	
0.112305	
0.110016	
0.107117	
0.107422	
0.104828	
0.105133	
0.104828	
0.0996399	
0.0926208	
0.0828552	
0.072937	
0.0653076	
0.0587463	
0.0531006	
0.0444031	
0.035553	
0.0231934	
0.00976562	
-0.00274658	
-0.0125122	
-0.0218201	
-0.0291443	
-0.0349426	
-0.0424194	
-0.0492859	
-0.0547791	
-0.0590515	
-0.0592041	
-0.0593567	
-0.0559998	
-0.0541687	
-0.0541687	
-0.0543213	
-0.0569153	
-0.0585938	
-0.0566101	
-0.0544739	
-0.0509644	
-0.0474548	
-0.0468445	
-0.0466919	
-0.0495911	
-0.0494385	
-0.0497437	
-0.0462341	
-0.0424194	
-0.0396729	
-0.0393677	
-0.0393677	
-0.0419617	
-0.0421143	
-0.0418091	
-0.0396729	
-0.0363159	
-0.0326538	
-0.0323486	
-0.0337219	
-0.0346375	
-0.0370789	
-0.0346375	
-0.0328064	
-0.0320435	
-0.0328064	
-0.0398254	
-0.0523376	
-0.0688171	
-0.0854492	
-0.102386	
-0.118103	
-0.125122	
-0.115356	
-0.0831604	
-0.0317383	
0.037384	
0.123749	
0.221558	
0.328979	
0.439758	
0.551605	
0.661621	
0.768738	
0.861206	
0.92453	
0.949402	
0.939026	
0.896454	
0.8255	
0.733337	
0.625	
0.507355	
0.383453	
0.26001	
0.136566	
0.0212097	
-0.0769043	
-0.157013	
-0.216522	
-0.259705	
-0.28656	
-0.299072	
-0.301208	
-0.297394	
-0.29129	
-0.284119	
-0.279999	
-0.276489	
-0.271606	
-0.264587	
-0.257721	
-0.249786	
-0.242004	
-0.237274	
-0.233765	
-0.231171	
-0.228729	
-0.225067	
-0.218658	
-0.213928	
-0.208435	
-0.205536	
-0.203857	
-0.201111	
-0.198212	
-0.193176	
-0.186462	
-0.17807	
-0.171051	
-0.1651	
-0.162048	
-0.159607	
-0.156555	
-0.151672	
-0.144501	
-0.137482	
-0.130615	
-0.127258	
-0.125427	
-0.123138	
-0.120392	
-0.115967	
-0.109863	
-0.102997	
-0.096283	
-0.0912476	
-0.0892639	
-0.0878906	
-0.085144	
-0.0794983	
-0.0732422	
-0.0662231	
-0.0585938	
-0.0543213	
-0.0518799	
-0.0498962	
-0.0486755	
-0.0448608	
-0.0415039	
-0.0364685	
-0.0325012	
-0.0299072	
-0.0302124	
-0.0320435	
-0.0302124	
-0.027771	
-0.0227356	
-0.0180054	
-0.0140381	
-0.0120544	
-0.0100708	
-0.00991821	
-0.00930786	
-0.00549316	
-0.000915527	
0.00473022	
0.00946045	
0.0117493	
0.0143433	
0.0144958	
0.0151062	
0.0189209	
0.0238037	
0.0285339	
0.0338745	
0.0363159	
0.0364685	
0.037384	
0.0395203	
0.0436401	
0.0502014	
0.0576782	
0.0637817	
0.068512	
0.0712585	
0.0727844	
0.0746155	
0.0784302	
0.0836182	
0.088501	
0.0927734	
0.0949097	
0.0927734	
0.0895691	
0.085144	
0.08255	
0.0802612	
0.0788879	
0.0753784	
0.0700378	
0.06073	
0.0506592	
0.0436401	
0.0357056	
0.0300598	
0.0234985	
0.0175476	
0.00946045	
-0.00274658	
-0.015564	
-0.0291443	
-0.0419617	
-0.0543213	
-0.0640869	
-0.0761414	
-0.0909424	
-0.104065	
-0.117645	
-0.127869	
-0.13443	
-0.13855	
-0.139923	
-0.142517	
-0.144958	
-0.149384	
-0.15213	
-0.153503	
-0.151978	
-0.148621	
-0.144196	
-0.140381	
-0.137634	
-0.137482	
-0.137329	
-0.135345	
-0.133057	
-0.128326	
-0.123291	
-0.118408	
-0.115509	
-0.115356	
-0.115356	
-0.113525	
-0.111084	
-0.107574	
-0.101471	
-0.0976562	
-0.0953674	
-0.0932312	
-0.0941467	
-0.0933838	
-0.0912476	
-0.087738	
-0.0830078	
-0.0791931	
-0.0767517	
-0.0761414	
-0.0785828	
-0.0787354	
-0.0761414	
-0.0721741	
-0.0683594	
-0.0643921	
-0.0619507	
-0.0634766	
-0.0639343	
-0.0640869	
-0.0621033	
-0.0588989	
-0.0544739	
-0.0517273	
-0.0495911	
-0.0497437	
-0.0521851	
-0.0520325	
-0.0508118	
-0.0474548	
-0.0439453	
-0.039978	
-0.0395203	
-0.0393677	
-0.0416565	
-0.0419617	
-0.0413513	
-0.0387573	
-0.0343323	
-0.0320435	
-0.0299072	
-0.0317383	
-0.0344849	
-0.0344849	
-0.0326538	
-0.0302124	
-0.0274658	
-0.0242615	
-0.0222778	
-0.0247192	
-0.0265503	
-0.0273132	
-0.0273132	
-0.0239563	
-0.0202942	
-0.0180054	
-0.0170898	
-0.0180054	
-0.0201416	
-0.0215149	
-0.0195312	
-0.0175476	
-0.014801	
-0.012207	
-0.0125122	
-0.012207	
-0.0146484	
-0.017395	
-0.015564	
-0.0141907	
-0.0108337	
-0.00762939	
-0.00762939	
-0.00946045	
-0.0105286	
-0.012207	
-0.0117493	
-0.00915527	
-0.00671387	
-0.00320435	
-0.00289917	
-0.00534058	
-0.00701904	
-0.00747681	
-0.00747681	
-0.00701904	
-0.00427246	
-0.00198364	
-0.000457764	
-0.00289917	
-0.0050354	
-0.00717163	
-0.00488281	
-0.00457764	
-0.00167847	
-0.000457764	
-0.000457764	
-0.00106812	
-0.00335693	
-0.0050354	
-0.00518799	
-0.00289917	
0.00167847	
0.00701904	
0.0125122	
0.0172424	
0.0219727	
0.0286865	
0.0364685	
0.0480652	
0.0585938	
0.0683594	
0.0762939	
0.0811768	
0.0852966	
0.0898743	
0.0959778	
0.101929	
0.108032	
0.112457	
0.112305	
0.111542	
0.108032	
0.104523	
0.10437	
0.102386	
0.102539	
0.0991821	
0.0933838	
0.085144	
0.075531	
0.0656128	
0.0576782	
0.0508118	
0.0437927	
0.0369263	
0.0265503	
0.0138855	
-0.000457764	
-0.0123596	
-0.0224304	
-0.0315857	
-0.0376892	
-0.0416565	
-0.0463867	
-0.0526428	
-0.057373	
-0.0610352	
-0.0616455	
-0.0593567	
-0.0569153	
-0.0544739	
-0.0544739	
-0.0543213	
-0.0563049	
-0.0566101	
-0.0561523	
-0.0523376	
-0.0498962	
-0.045929	
-0.0440979	
-0.0462341	
-0.0468445	
-0.0491333	
-0.0468445	
-0.0444031	
-0.0413513	
-0.0376892	
-0.0370789	
-0.0393677	
-0.0392151	
-0.0416565	
-0.039978	
-0.037384	
-0.03479	
-0.0323486	
-0.0320435	
-0.032196	
-0.0344849	
-0.0343323	
-0.0344849	
-0.03479	
-0.0344849	
-0.0398254	
-0.0502014	
-0.0646973	
-0.0834656	
-0.101471	
-0.119934	
-0.127563	
-0.117035	
-0.085144	
-0.0312805	
0.0395203	
0.122833	
0.218048	
0.323639	
0.43457	
0.547028	
0.65979	
0.768585	
0.861816	
0.924988	
0.949249	
0.937042	
0.894165	
0.8255	
0.736084	
0.629883	
0.51239	
0.388336	
0.263519	
0.137787	
0.0210571	
-0.0782776	
-0.155334	
-0.21347	
-0.257111	
-0.284119	
-0.299225	
-0.303802	
-0.300751	
-0.294189	
-0.286255	
-0.279236	
-0.274963	
-0.270538	
-0.265503	
-0.259857	
-0.252533	
-0.244598	
-0.237427	
-0.231323	
-0.228577	
-0.228119	
-0.22583	
-0.221405	
-0.21637	
-0.210571	
-0.205688	
-0.200958	
-0.198822	
-0.196991	
-0.194244	
-0.188751	
-0.181122	
-0.173798	
-0.166473	
-0.160065	
-0.157318	
-0.154724	
-0.151672	
-0.146484	
-0.139771	
-0.133362	
-0.127258	
-0.122681	
-0.120392	
-0.118561	
-0.116119	
-0.111389	
-0.105438	
-0.0984192	
-0.0920105	
-0.0865173	
-0.0840759	
-0.0830078	
-0.0796509	
-0.0738525	
-0.0671387	
-0.0598145	
-0.0534058	
-0.0492859	
-0.0468445	
-0.0469971	
-0.0466919	
-0.0436401	
-0.039978	
-0.0337219	
-0.0302124	
-0.027771	
-0.0271606	
-0.0268555	
-0.0273132	
-0.0250244	
-0.0204468	
-0.0157166	
-0.0120544	
-0.00946045	
-0.00762939	
-0.00747681	
-0.00732422	
-0.00335693	
0.00213623	
0.00762939	
0.0123596	
0.0167847	
0.0164795	
0.0172424	
0.0192261	
0.0215149	
0.0260925	
0.032196	
0.0364685	
0.0390625	
0.0410461	
0.0415039	
0.0434875	
0.0489807	
0.0558472	
0.062561	
0.0683594	
0.0727844	
0.0753784	
0.0752258	
0.0778198	
0.0811768	
0.0857544	
0.0907898	
0.0946045	
0.0952148	
0.0921631	
0.0872803	
0.0822449	
0.0785828	
0.0756836	
0.0727844	
0.0686646	
0.0631714	
0.0534058	
0.0437927	
0.0341797	
0.0274658	
0.0210571	
0.0152588	
0.00961304	
-0.000457764	
-0.01297	
-0.0279236	
-0.0421143	
-0.0549316	
-0.0665283	
-0.0788879	
-0.0904846	
-0.102539	
-0.115204	
-0.125122	
-0.135498	
-0.140381	
-0.143127	
-0.144806	
-0.145111	
-0.147552	
-0.149536	
-0.15213	
-0.152283	
-0.15152	
-0.146637	
-0.141907	
-0.137634	
-0.135193	
-0.132446	
-0.13504	
-0.132599	
-0.130157	
-0.12558	
-0.120087	
-0.115662	
-0.112915	
-0.110321	
-0.110474	
-0.110779	
-0.10849	
-0.103302	
-0.098877	
-0.093689	
-0.0914001	
-0.0907898	
-0.0932312	
-0.0926208	
-0.0901794	
-0.0865173	
-0.0819397	
-0.078125	
-0.0762939	
-0.0764465	
-0.0761414	
-0.0762939	
-0.0738525	
-0.0706482	
-0.065918	
-0.0619507	
-0.0614929	
-0.0613403	
-0.0614929	
-0.0634766	
-0.0614929	
-0.058136	
-0.0540161	
-0.0511169	
-0.0492859	
-0.0494385	
-0.0509644	
-0.0518799	
-0.0492859	
-0.045929	
-0.042572	
-0.0393677	
-0.0370789	
-0.0390625	
-0.0398254	
-0.0419617	
-0.0395203	
-0.037384	
-0.0340271	
-0.0300598	
-0.0294495	
-0.0297546	
-0.0318909	
-0.032196	
-0.0326538	
-0.0291443	
-0.0256348	
-0.0219727	
-0.0222778	
-0.0233459	
-0.0244141	
-0.0260925	
-0.0250244	
-0.0221252	
-0.0201416	
-0.017395	
-0.0149536	
-0.0170898	
-0.0192261	
-0.0198364	
-0.0201416	
-0.0167847	
-0.0143433	
-0.0105286	
-0.00976562	
-0.0125122	
-0.014801	
-0.0175476	
-0.0154114	
-0.0132751	
-0.0100708	
-0.00762939	
-0.00778198	
-0.00823975	
-0.0105286	
-0.0126648	
-0.0115967	
-0.00930786	
-0.00701904	
-0.00457764	
-0.00259399	
-0.00564575	
-0.00732422	
-0.00991821	
-0.00839233	
-0.00686646	
-0.00289917	
-0.000915527	
-0.000152588	
-0.00274658	
-0.0050354	
-0.00717163	
-0.00549316	
-0.00411987	
-0.00106812	
0.00152588	
0.00198364	
-0.000305176	
-0.00244141	
-0.00549316	
-0.00427246	
-0.000152588	
0.00640869	
0.0123596	
0.019989	
0.0248718	
0.0297546	
0.0366211	
0.0463867	
0.0558472	
0.0656128	
0.0756836	
0.0828552	
0.087738	
0.091095	
0.0947571	
0.0996399	
0.105133	
0.110626	
0.11322	
0.114288	
0.111542	
0.106659	
0.102997	
0.101776	
0.0999451	
0.0979614	
0.0946045	
0.087738	
0.0776672	
0.0674438	
0.0556946	
0.0489807	
0.0408936	
0.0338745	
0.0259399	
0.0151062	
0.00244141	
-0.0105286	
-0.0244141	
-0.0335693	
-0.0402832	
-0.0440979	
-0.0468445	
-0.0511169	
-0.0549316	
-0.0593567	
-0.0613403	
-0.0616455	
-0.0593567	
-0.0558472	
-0.0521851	
-0.0518799	
-0.0518799	
-0.0541687	
-0.0541687	
-0.0544739	
-0.0518799	
-0.0474548	
-0.0444031	
-0.0445557	
-0.0442505	
-0.0466919	
-0.0468445	
-0.0466919	
-0.0442505	
-0.0411987	
-0.0375366	
-0.0369263	
-0.037384	
-0.0395203	
-0.0415039	
-0.0393677	
-0.0376892	
-0.0344849	
-0.0320435	
-0.0296021	
-0.032196	
-0.0341797	
-0.0346375	
-0.03479	
-0.0370789	
-0.0413513	
-0.0491333	
-0.0624084	
-0.0788879	
-0.0984192	
-0.11795	
-0.129852	
-0.119781	
-0.0872803	
-0.0338745	
0.0393677	
0.122375	
0.217743	
0.320892	
0.428925	
0.542145	
0.655823	
0.766296	
0.863647	
0.926971	
0.949249	
0.935822	
0.892639	
0.823212	
0.735779	
0.630951	
0.517426	
0.393372	
0.265961	
0.139313	
0.0216675	
-0.0784302	
-0.15686	
-0.21347	
-0.253448	
-0.28183	
-0.296631	
-0.304413	
-0.301971	
-0.296783	
-0.286865	
-0.279694	
-0.272217	
-0.268097	
-0.263977	
-0.260468	
-0.254669	
-0.24765	
-0.239716	
-0.232544	
-0.227661	
-0.225525	
-0.223541	
-0.221252	
-0.218506	
-0.213623	
-0.208282	
-0.201569	
-0.196686	
-0.194397	
-0.191956	
-0.188446	
-0.18219	
-0.174866	
-0.166779	
-0.15976	
-0.154114	
-0.151672	
-0.149231	
-0.145264	
-0.141754	
-0.135193	
-0.128479	
-0.122223	
-0.118256	
-0.115662	
-0.115051	
-0.112305	
-0.107422	
-0.100403	
-0.0938416	
-0.0878906	
-0.0830078	
-0.0805664	
-0.0787354	
-0.0756836	
-0.0706482	
-0.0636292	
-0.0564575	
-0.0498962	
-0.0468445	
-0.0444031	
-0.0444031	
-0.0442505	
-0.0419617	
-0.0378418	
-0.0325012	
-0.0292969	
-0.0271606	
-0.025177	
-0.0247192	
-0.0250244	
-0.0224304	
-0.0178528	
-0.0125122	
-0.00823975	
-0.00549316	
-0.0050354	
-0.00534058	
-0.00244141	
0.000457764	
0.0050354	
0.0115967	
0.0167847	
0.0192261	
0.0190735	
0.0195312	
0.0218201	
0.0236511	
0.0271606	
0.0334167	
0.0387573	
0.0410461	
0.0434875	
0.0456238	
0.0482178	
0.052948	
0.0590515	
0.0662231	
0.0724792	
0.0775146	
0.0778198	
0.0776672	
0.0805664	
0.0834656	
0.0872803	
0.0920105	
0.0950623	
0.0932312	
0.0895691	
0.0834656	
0.0784302	
0.0737	
0.0708008	
0.0675964	
0.062561	
0.0558472	
0.0457764	
0.0363159	
0.0263977	
0.0193787	
0.0128174	
0.00701904	
-0.000305176	
-0.0109863	
-0.0241089	
-0.0401306	
-0.0547791	
-0.0691223	
-0.0810242	
-0.0909424	
-0.103302	
-0.112762	
-0.122986	
-0.132751	
-0.140533	
-0.145264	
-0.147095	
-0.1474	
-0.147095	
-0.147552	
-0.149689	
-0.151367	
-0.151215	
-0.149384	
-0.145416	
-0.139923	
-0.135345	
-0.131836	
-0.130005	
-0.130005	
-0.130615	
-0.128021	
-0.123444	
-0.117188	
-0.112152	
-0.109863	
-0.108185	
-0.108185	
-0.108185	
-0.106659	
-0.101471	
-0.0964355	
-0.0924683	
-0.0909424	
-0.0912476	
-0.0906372	
-0.0912476	
-0.0886536	
-0.0854492	
-0.0808716	
-0.0765991	
-0.0740051	
-0.0738525	
-0.0764465	
-0.0753784	
-0.0730896	
-0.0692749	
-0.0646973	
-0.06073	
-0.0593567	
-0.0592041	
-0.0592041	
-0.0608826	
-0.0588989	
-0.0563049	
-0.0523376	
-0.0483704	
-0.0469971	
-0.0469971	
-0.0492859	
-0.0491333	
-0.0486755	
-0.0463867	
-0.0421143	
-0.0395203	
-0.037384	
-0.0392151	
-0.0395203	
-0.0395203	
-0.0393677	
-0.0363159	
-0.0328064	
-0.0296021	
-0.0276184	
-0.0296021	
-0.0317383	
-0.032196	
-0.0320435	
-0.0286865	
-0.0254822	
-0.0227356	
-0.0227356	
-0.0227356	
-0.0247192	
-0.0248718	
-0.0247192	
-0.0219727	
-0.0178528	
-0.014801	
-0.014801	
-0.0149536	
-0.0175476	
-0.0193787	
-0.0177002	
-0.0154114	
-0.0128174	
-0.0102234	
-0.00991821	
-0.0106812	
-0.01297	
-0.0151062	
-0.0143433	
-0.0115967	
-0.00946045	
-0.00747681	
-0.00564575	
-0.00717163	
-0.00976562	
-0.0120544	
-0.0100708	
-0.00900269	
-0.00564575	
-0.00274658	
-0.00274658	
-0.00442505	
-0.00717163	
-0.00762939	
-0.00793457	
-0.00534058	
-0.00320435	
0	
-0.000457764	
-0.00228882	
-0.00473022	
-0.0050354	
-0.00518799	
-0.00320435	
-0.000610352	
0.00213623	
0.00228882	
-0.000305176	
-0.00274658	
-0.00259399	
-0.00213623	
0.00305176	
0.0111389	
0.0193787	
0.0268555	
0.0332642	
0.0386047	
0.045929	
0.0538635	
0.0630188	
0.072937	
0.083313	
0.0897217	
0.0932312	
0.0958252	
0.0996399	
0.104675	
0.10788	
0.111542	
0.114288	
0.11261	
0.109558	
0.105438	
0.100403	
0.098114	
0.09552	
0.0918579	
0.0871277	
0.0805664	
0.0708008	
0.0582886	
0.0483704	
0.0390625	
0.0317383	
0.0239563	
0.0146484	
0.00473022	
-0.00671387	
-0.0205994	
-0.0325012	
-0.0401306	
-0.0460815	
-0.0485229	
-0.0494385	
-0.0526428	
-0.0561523	
-0.0588989	
-0.0614929	
-0.0598145	
-0.0582886	
-0.0546265	
-0.0520325	
-0.0518799	
-0.0524902	
-0.0541687	
-0.0566101	
-0.0541687	
-0.0518799	
-0.0486755	
-0.0447083	
-0.0444031	
-0.0445557	
-0.0471497	
-0.0466919	
-0.0471497	
-0.043335	
-0.0396729	
-0.0369263	
-0.0369263	
-0.037384	
-0.0393677	
-0.0392151	
-0.0396729	
-0.0370789	
-0.0338745	
-0.030365	
-0.0294495	
-0.0312805	
-0.0328064	
-0.03479	
-0.0386047	
-0.0437927	
-0.0520325	
-0.0619507	
-0.0767517	
-0.096283	
-0.11734	
-0.129395	
-0.122375	
-0.0901794	
-0.0361633	
0.0372314	
0.122681	
0.217743	
0.318756	
0.426178	
0.537109	
0.651245	
0.764008	
0.860748	
0.927277	
0.951538	
0.938721	
0.892487	
0.822296	
0.733948	
0.631256	
0.518646	
0.397949	
0.270844	
0.144043	
0.0244141	
-0.0779724	
-0.157013	
-0.214539	
-0.252533	
-0.279541	
-0.294647	
-0.303497	
-0.304108	
-0.29892	
-0.291901	
-0.282135	
-0.272217	
-0.265198	
-0.261841	
-0.258026	
-0.254364	
-0.249634	
-0.242615	
-0.235443	
-0.228729	
-0.223846	
-0.221252	
-0.22049	
-0.218353	
-0.215454	
-0.210724	
-0.203247	
-0.198517	
-0.193329	
-0.189056	
-0.186768	
-0.183563	
-0.177155	
-0.171051	
-0.161896	
-0.15564	
-0.150299	
-0.1474	
-0.144958	
-0.14267	
-0.137787	
-0.132446	
-0.124969	
-0.118561	
-0.114899	
-0.112305	
-0.110626	
-0.107117	
-0.102386	
-0.096283	
-0.0906372	
-0.0828552	
-0.0788879	
-0.0762939	
-0.0740051	
-0.0708008	
-0.0660706	
-0.0601196	
-0.0526428	
-0.0460815	
-0.0434875	
-0.0419617	
-0.0419617	
-0.0422668	
-0.0395203	
-0.0352478	
-0.0314331	
-0.0267029	
-0.0248718	
-0.0221252	
-0.0248718	
-0.022583	
-0.0202942	
-0.0166321	
-0.0120544	
-0.00701904	
-0.00274658	
-0.00305176	
-0.00198364	
-0.000457764	
0.00289917	
0.00747681	
0.0135803	
0.0184631	
0.0216675	
0.0241089	
0.0244141	
0.0244141	
0.0265503	
0.0311279	
0.0366211	
0.0419617	
0.0457764	
0.0485229	
0.0509644	
0.0531006	
0.0582886	
0.0639343	
0.0712585	
0.0772095	
0.0805664	
0.0810242	
0.0828552	
0.0831604	
0.0852966	
0.0897217	
0.0927734	
0.0953674	
0.0921631	
0.0875854	
0.0802612	
0.0737	
0.0688171	
0.065155	
0.0613403	
0.0561523	
0.0486755	
0.0387573	
0.0291443	
0.0192261	
0.0117493	
0.00442505	
-0.00183105	
-0.0100708	
-0.0216675	
-0.0366211	
-0.0523376	
-0.0683594	
-0.0831604	
-0.0932312	
-0.103149	
-0.112915	
-0.121002	
-0.13031	
-0.137634	
-0.144348	
-0.147705	
-0.149841	
-0.149231	
-0.147247	
-0.147095	
-0.147705	
-0.149994	
-0.149689	
-0.14679	
-0.143127	
-0.136719	
-0.132904	
-0.129852	
-0.127716	
-0.127716	
-0.128021	
-0.124817	
-0.119934	
-0.115051	
-0.109711	
-0.107422	
-0.105591	
-0.105743	
-0.105896	
-0.103149	
-0.0999451	
-0.0953674	
-0.091095	
-0.0883484	
-0.088501	
-0.0886536	
-0.088501	
-0.0862122	
-0.0828552	
-0.0782776	
-0.0738525	
-0.0709534	
-0.0714111	
-0.0720215	
-0.0732422	
-0.0709534	
-0.0671387	
-0.0631714	
-0.0590515	
-0.0569153	
-0.0575256	
-0.0592041	
-0.0595093	
-0.0584412	
-0.0546265	
-0.0512695	
-0.0471497	
-0.0466919	
-0.0468445	
-0.0488281	
-0.0494385	
-0.0476074	
-0.0444031	
-0.0415039	
-0.0370789	
-0.0372314	
-0.0370789	
-0.0389099	
-0.0395203	
-0.0389099	
-0.0363159	
-0.0325012	
-0.0297546	
-0.0271606	
-0.0296021	
-0.0306702	
-0.0318909	
-0.0302124	
-0.0279236	
-0.0244141	
-0.0204468	
-0.0198364	
-0.0209045	
-0.0227356	
-0.0248718	
-0.0247192	
-0.0219727	
-0.0190735	
-0.015564	
-0.014801	
-0.0160217	
-0.0172424	
-0.0196838	
-0.0190735	
-0.0166321	
-0.01297	
-0.0106812	
-0.0100708	
-0.0119019	
-0.0143433	
-0.014801	
-0.014801	
-0.0123596	
-0.00946045	
-0.00717163	
-0.0050354	
-0.00762939	
-0.0100708	
-0.0108337	
-0.0105286	
-0.00961304	
-0.00686646	
-0.00320435	
-0.00259399	
-0.00442505	
-0.00701904	
-0.00732422	
-0.00762939	
-0.00579834	
-0.00350952	
-0.000305176	
0	
-0.00167847	
-0.00442505	
-0.00518799	
-0.00518799	
-0.00350952	
-0.00106812	
0.00167847	
0.00228882	
-0.000305176	
-0.00274658	
-0.00274658	
0.000457764	
0.00686646	
0.0167847	
0.0262451	
0.0341797	
0.0405884	
0.0463867	
0.0535583	
0.0614929	
0.0706482	
0.080719	
0.0897217	
0.0956726	
0.100403	
0.101929	
0.103149	
0.105438	
0.109406	
0.111694	
0.112305	
0.111084	
0.108032	
0.103149	
0.098114	
0.0933838	
0.0895691	
0.0848389	
0.0798035	
0.0723267	
0.0608826	
0.0505066	
0.0390625	
0.0289917	
0.0219727	
0.0140381	
0.00473022	
-0.00518799	
-0.0172424	
-0.0296021	
-0.0415039	
-0.0473022	
-0.0520325	
-0.0515747	
-0.0517273	
-0.0540161	
-0.0564575	
-0.0590515	
-0.0616455	
-0.06073	
-0.0584412	
-0.0547791	
-0.0515747	
-0.0505066	
-0.0521851	
-0.0537109	
-0.0540161	
-0.0524902	
-0.0500488	
-0.0469971	
-0.0444031	
-0.0421143	
-0.0437927	
-0.0448608	
-0.0469971	
-0.0450134	
-0.0436401	
-0.0398254	
-0.0370789	
-0.0358582	
-0.0370789	
-0.0390625	
-0.0393677	
-0.0395203	
-0.0363159	
-0.0326538	
-0.0299072	
-0.0296021	
-0.030365	
-0.0338745	
-0.0386047	
-0.0450134	
-0.0544739	
-0.0639343	
-0.078125	
-0.093689	
-0.112915	
-0.127869	
-0.122528	
-0.0932312	
-0.0386047	
0.0340271	
0.121307	
0.217438	
0.318756	
0.425568	
0.5336	
0.646057	
0.758667	
0.857849	
0.925903	
0.954742	
0.94223	
0.895996	
0.824127	
0.733948	
0.630951	
0.520477	
0.400848	
0.276337	
0.149689	
0.0288391	
-0.0758362	
-0.157013	
-0.215759	
-0.254974	
-0.279083	
-0.291595	
-0.299835	
-0.301514	
-0.298615	
-0.291595	
-0.284271	
-0.274811	
-0.265961	
-0.259247	
-0.255585	
-0.252533	
-0.249329	
-0.244904	
-0.237274	
-0.230408	
-0.223846	
-0.219116	
-0.217896	
-0.216064	
-0.215302	
-0.211639	
-0.205994	
-0.199585	
-0.191803	
-0.186768	
-0.183868	
-0.180969	
-0.177307	
-0.171967	
-0.164185	
-0.157166	
-0.150452	
-0.145416	
-0.142517	
-0.139771	
-0.137787	
-0.132904	
-0.127716	
-0.120239	
-0.115051	
-0.109863	
-0.108337	
-0.105591	
-0.103455	
-0.0990295	
-0.0932312	
-0.0860596	
-0.0791931	
-0.0743103	
-0.0715637	
-0.0691223	
-0.0665283	
-0.0624084	
-0.0559998	
-0.0492859	
-0.0439453	
-0.039978	
-0.0395203	
-0.0393677	
-0.0396729	
-0.0370789	
-0.0337219	
-0.0291443	
-0.0250244	
-0.0222778	
-0.0224304	
-0.0221252	
-0.0216675	
-0.018158	
-0.0144958	
-0.00839233	
-0.00320435	
-0.000305176	
-0.000457764	
0.00152588	
0.00183105	
0.00656128	
0.0112915	
0.0164795	
0.0221252	
0.0242615	
0.0268555	
0.0263977	
0.0268555	
0.0296021	
0.0346375	
0.040741	
0.0460815	
0.0505066	
0.0532532	
0.0549316	
0.0575256	
0.0627136	
0.0683594	
0.0749207	
0.0810242	
0.0834656	
0.0852966	
0.0856018	
0.0852966	
0.0872803	
0.0898743	
0.0907898	
0.0920105	
0.0883484	
0.0827026	
0.0753784	
0.0688171	
0.0637817	
0.0590515	
0.0550842	
0.050354	
0.0419617	
0.0317383	
0.0218201	
0.0115967	
0.00411987	
-0.00457764	
-0.0128174	
-0.0222778	
-0.0344849	
-0.0497437	
-0.0656128	
-0.0819397	
-0.0956726	
-0.105743	
-0.114441	
-0.120697	
-0.128784	
-0.135651	
-0.14328	
-0.149231	
-0.151978	
-0.151672	
-0.149689	
-0.1474	
-0.144806	
-0.14679	
-0.147552	
-0.1474	
-0.144043	
-0.140381	
-0.13443	
-0.130005	
-0.127563	
-0.125122	
-0.124969	
-0.125427	
-0.122223	
-0.117798	
-0.112457	
-0.107727	
-0.105286	
-0.103149	
-0.105438	
-0.103455	
-0.101013	
-0.0973511	
-0.0926208	
-0.088501	
-0.0860596	
-0.0860596	
-0.085907	
-0.085907	
-0.0842285	
-0.0805664	
-0.0758362	
-0.0717163	
-0.0694275	
-0.0689697	
-0.0715637	
-0.0717163	
-0.0691223	
-0.0657654	
-0.0619507	
-0.058136	
-0.0566101	
-0.0567627	
-0.0588989	
-0.0593567	
-0.0567627	
-0.0540161	
-0.0495911	
-0.045929	
-0.0442505	
-0.045166	
-0.0466919	
-0.0471497	
-0.0468445	
-0.0436401	
-0.0398254	
-0.0366211	
-0.0346375	
-0.0350952	
-0.0372314	
-0.0382996	
-0.0372314	
-0.0349426	
-0.030365	
-0.0273132	
-0.0273132	
-0.0271606	
-0.0297546	
-0.0299072	
-0.0296021	
-0.0271606	
-0.0239563	
-0.0201416	
-0.0195312	
-0.0205994	
-0.0228882	
-0.0247192	
-0.0241089	
-0.0216675	
-0.0177002	
-0.0149536	
-0.0144958	
-0.0151062	
-0.0172424	
-0.0172424	
-0.0177002	
-0.0154114	
-0.0123596	
-0.0100708	
-0.00976562	
-0.0102234	
-0.012207	
-0.014801	
-0.0137329	
-0.0119019	
-0.00961304	
-0.00732422	
-0.0050354	
-0.00762939	
-0.00915527	
-0.0102234	
-0.0102234	
-0.00778198	
-0.00518799	
-0.00305176	
-0.00289917	
-0.00335693	
-0.00595093	
-0.00717163	
-0.00747681	
-0.00549316	
-0.00289917	
0	
-0.000152588	
-0.00106812	
-0.00473022	
-0.00518799	
-0.0050354	
-0.00335693	
-0.00106812	
0.00152588	
0.00183105	
-0.000457764	
-0.000457764	
0.00198364	
0.00717163	
0.0140381	
0.0241089	
0.0340271	
0.0430298	
0.0492859	
0.0553894	
0.0605774	
0.0683594	
0.0778198	
0.0875854	
0.0952148	
0.102081	
0.104828	
0.10498	
0.10498	
0.106812	
0.109253	
0.109863	
0.112457	
0.109711	
0.105591	
0.100098	
0.0932312	
0.0886536	
0.0819397	
0.0773621	
0.0712585	
0.0631714	
0.0534058	
0.0410461	
0.0292969	
0.0193787	
0.00946045	
0.00244141	
-0.00579834	
-0.0170898	
-0.0271606	
-0.0396729	
-0.0473022	
-0.0526428	
-0.0544739	
-0.0541687	
-0.0544739	
-0.0547791	
-0.0575256	
-0.0595093	
-0.0613403	
-0.0593567	
-0.0570679	
-0.0543213	
-0.0518799	
-0.0492859	
-0.0509644	
-0.0518799	
-0.0540161	
-0.0517273	
-0.0491333	
-0.0462341	
-0.0421143	
-0.0419617	
-0.0422668	
-0.0437927	
-0.0440979	
-0.0444031	
-0.0415039	
-0.0376892	
-0.03479	
-0.0344849	
-0.0346375	
-0.0369263	
-0.0395203	
-0.037384	
-0.0352478	
-0.0320435	
-0.0299072	
-0.0294495	
-0.0315857	
-0.037384	
-0.0445557	
-0.0549316	
-0.0666809	
-0.0790405	
-0.0939941	
-0.110931	
-0.124359	
-0.12085	
-0.0933838	
-0.0422668	
0.0296021	
0.117645	
0.215759	
0.319824	
0.42572	
0.53299	
0.643463	
0.753632	
0.854492	
0.924377	
0.955505	
0.945892	
0.899963	
0.826569	
0.735779	
0.631409	
0.518799	
0.401459	
0.278778	
0.154266	
0.0343323	
-0.072937	
-0.15625	
-0.215607	
-0.257111	
-0.279694	
-0.291443	
-0.296478	
-0.296478	
-0.296326	
-0.291748	
-0.284271	
-0.2771	
-0.267487	
-0.259552	
-0.253143	
-0.249481	
-0.247192	
-0.244598	
-0.240021	
-0.233307	
-0.226746	
-0.220184	
-0.216064	
-0.213623	
-0.21347	
-0.211029	
-0.207825	
-0.201874	
-0.19455	
-0.18692	
-0.18219	
-0.178528	
-0.175629	
-0.172577	
-0.167389	
-0.15976	
-0.152435	
-0.145416	
-0.140686	
-0.137482	
-0.137024	
-0.134277	
-0.1297	
-0.124817	
-0.117798	
-0.111389	
-0.106506	
-0.103607	
-0.102234	
-0.0991821	
-0.0953674	
-0.0889587	
-0.0813293	
-0.0743103	
-0.0695801	
-0.0666809	
-0.0639343	
-0.0619507	
-0.0569153	
-0.0517273	
-0.0450134	
-0.0402832	
-0.0372314	
-0.0372314	
-0.0367737	
-0.0369263	
-0.0352478	
-0.0317383	
-0.0268555	
-0.0224304	
-0.0196838	
-0.0198364	
-0.0193787	
-0.0183105	
-0.015564	
-0.0106812	
-0.0050354	
0.000152588	
0.00396729	
0.00473022	
0.00457764	
0.00671387	
0.00976562	
0.0141907	
0.0201416	
0.0239563	
0.0265503	
0.0289917	
0.0291443	
0.0289917	
0.0323486	
0.0370789	
0.0434875	
0.0502014	
0.0538635	
0.057373	
0.0593567	
0.0627136	
0.0663757	
0.0723267	
0.0787354	
0.0843811	
0.0880432	
0.0881958	
0.0880432	
0.0874329	
0.087738	
0.0895691	
0.0901794	
0.0897217	
0.085907	
0.0785828	
0.0704956	
0.0640869	
0.0582886	
0.0526428	
0.0480652	
0.0416565	
0.0341797	
0.0241089	
0.0138855	
0.00228882	
-0.00656128	
-0.0149536	
-0.0248718	
-0.0346375	
-0.0474548	
-0.063324	
-0.0804138	
-0.0949097	
-0.10788	
-0.116882	
-0.123291	
-0.128021	
-0.133057	
-0.139923	
-0.146942	
-0.151825	
-0.154114	
-0.151825	
-0.149689	
-0.146637	
-0.144653	
-0.144806	
-0.144806	
-0.145111	
-0.141602	
-0.137024	
-0.131989	
-0.127258	
-0.123291	
-0.122528	
-0.122833	
-0.12207	
-0.119629	
-0.114746	
-0.110016	
-0.105438	
-0.102386	
-0.100708	
-0.103302	
-0.102844	
-0.100098	
-0.09552	
-0.0901794	
-0.0860596	
-0.0837708	
-0.0836182	
-0.0834656	
-0.0837708	
-0.0819397	
-0.0779724	
-0.0743103	
-0.0692749	
-0.0671387	
-0.0660706	
-0.0691223	
-0.0689697	
-0.0671387	
-0.0639343	
-0.0598145	
-0.0559998	
-0.0544739	
-0.0541687	
-0.0540161	
-0.0567627	
-0.0543213	
-0.0518799	
-0.0486755	
-0.0450134	
-0.0424194	
-0.0444031	
-0.0444031	
-0.0445557	
-0.0440979	
-0.0413513	
-0.0376892	
-0.0343323	
-0.0326538	
-0.0346375	
-0.0354004	
-0.0370789	
-0.0363159	
-0.0328064	
-0.0297546	
-0.0263977	
-0.0248718	
-0.0265503	
-0.0282288	
-0.0292969	
-0.0288391	
-0.0265503	
-0.0227356	
-0.019989	
-0.0201416	
-0.019989	
-0.0219727	
-0.0222778	
-0.0224304	
-0.0202942	
-0.0175476	
-0.0141907	
-0.0126648	
-0.0144958	
-0.0152588	
-0.017395	
-0.0172424	
-0.0151062	
-0.0128174	
-0.0102234	
-0.00778198	
-0.00991821	
-0.0125122	
-0.0141907	
-0.01297	
-0.0106812	
-0.00808716	
-0.0050354	
-0.00488281	
-0.00717163	
-0.00961304	
-0.00991821	
-0.0102234	
-0.00808716	
-0.00534058	
-0.00305176	
-0.00289917	
-0.00244141	
-0.00595093	
-0.00778198	
-0.00762939	
-0.00488281	
-0.00198364	
-0.000152588	
-0.000152588	
-0.000305176	
-0.00305176	
-0.00534058	
-0.0050354	
-0.00289917	
-0.000305176	
0.00228882	
0.00213623	
0.00198364	
0.00274658	
0.00640869	
0.0119019	
0.0216675	
0.0314331	
0.0408936	
0.0509644	
0.0578308	
0.0637817	
0.0688171	
0.0761414	
0.0854492	
0.092926	
0.100403	
0.105438	
0.107422	
0.107422	
0.107117	
0.107117	
0.1091	
0.109711	
0.110016	
0.107727	
0.103149	
0.0952148	
0.0881958	
0.0811768	
0.0753784	
0.0701904	
0.0634766	
0.0558472	
0.0436401	
0.0318909	
0.0192261	
0.00961304	
-0.000305176	
-0.00778198	
-0.0172424	
-0.0265503	
-0.0370789	
-0.0462341	
-0.0523376	
-0.0567627	
-0.0564575	
-0.0559998	
-0.0541687	
-0.0544739	
-0.0561523	
-0.0590515	
-0.0590515	
-0.0590515	
-0.0559998	
-0.0523376	
-0.0495911	
-0.0495911	
-0.0492859	
-0.0512695	
-0.0520325	
-0.0508118	
-0.0476074	
-0.0444031	
-0.0421143	
-0.0396729	
-0.0418091	
-0.0437927	
-0.0447083	
-0.0439453	
-0.0411987	
-0.0375366	
-0.0346375	
-0.032196	
-0.0341797	
-0.035553	
-0.0370789	
-0.0370789	
-0.03479	
-0.0315857	
-0.0291443	
-0.0288391	
-0.0343323	
-0.0444031	
-0.0550842	
-0.0683594	
-0.0816345	
-0.096283	
-0.112305	
-0.122223	
-0.118408	
-0.0930786	
-0.0439453	
0.0271606	
0.114441	
0.21286	
0.318146	
0.427094	
0.535736	
0.643158	
0.751038	
0.850067	
0.921936	
0.953979	
0.947571	
0.904388	
0.832214	
0.739594	
0.63385	
0.519409	
0.401154	
0.279846	
0.156555	
0.0376892	
-0.0672913	
-0.15213	
-0.214996	
-0.257416	
-0.28183	
-0.294189	
-0.296783	
-0.296173	
-0.293732	
-0.29007	
-0.284882	
-0.278931	
-0.270691	
-0.262146	
-0.254364	
-0.248108	
-0.244598	
-0.241699	
-0.240021	
-0.234833	
-0.228882	
-0.222626	
-0.216522	
-0.21286	
-0.211334	
-0.209045	
-0.207977	
-0.202942	
-0.198212	
-0.189819	
-0.182343	
-0.177155	
-0.173492	
-0.169983	
-0.166321	
-0.161133	
-0.154877	
-0.147552	
-0.140686	
-0.135651	
-0.132904	
-0.131073	
-0.128479	
-0.124817	
-0.118408	
-0.112305	
-0.105896	
-0.101166	
-0.0984192	
-0.0964355	
-0.0941467	
-0.0904846	
-0.0834656	
-0.0767517	
-0.0697327	
-0.0640869	
-0.0614929	
-0.0592041	
-0.0564575	
-0.0534058	
-0.0488281	
-0.042572	
-0.0375366	
-0.0349426	
-0.0343323	
-0.0346375	
-0.0352478	
-0.0338745	
-0.0291443	
-0.0242615	
-0.0193787	
-0.0167847	
-0.0149536	
-0.0149536	
-0.0151062	
-0.0123596	
-0.00808716	
-0.00289917	
0.00213623	
0.0050354	
0.00701904	
0.00686646	
0.0088501	
0.0114441	
0.0163269	
0.0224304	
0.0273132	
0.0297546	
0.0318909	
0.0317383	
0.0320435	
0.0346375	
0.0410461	
0.0483704	
0.0550842	
0.0601196	
0.0627136	
0.0637817	
0.0663757	
0.0714111	
0.0758362	
0.0823975	
0.0871277	
0.0897217	
0.0904846	
0.0895691	
0.087738	
0.0875854	
0.0878906	
0.085907	
0.0846863	
0.0799561	
0.0732422	
0.0642395	
0.0567627	
0.0505066	
0.0454712	
0.0405884	
0.0346375	
0.0268555	
0.0170898	
0.0050354	
-0.00534058	
-0.0167847	
-0.0268555	
-0.0372314	
-0.0473022	
-0.0608826	
-0.0765991	
-0.0935364	
-0.107269	
-0.117798	
-0.124817	
-0.1297	
-0.133514	
-0.137024	
-0.143127	
-0.148926	
-0.153046	
-0.154724	
-0.152435	
-0.147858	
-0.144806	
-0.14267	
-0.142365	
-0.142365	
-0.140686	
-0.138092	
-0.13443	
-0.128326	
-0.123138	
-0.120544	
-0.120239	
-0.120544	
-0.118256	
-0.116119	
-0.11261	
-0.107422	
-0.102539	
-0.100403	
-0.0984192	
-0.10025	
-0.098877	
-0.0979614	
-0.0939941	
-0.0888062	
-0.085907	
-0.0817871	
-0.0811768	
-0.0819397	
-0.0813293	
-0.0796509	
-0.0764465	
-0.0718689	
-0.0682068	
-0.0663757	
-0.0663757	
-0.0666809	
-0.0663757	
-0.065918	
-0.0622559	
-0.0582886	
-0.0543213	
-0.0517273	
-0.0524902	
-0.0543213	
-0.0543213	
-0.0537109	
-0.0512695	
-0.0469971	
-0.0424194	
-0.0421143	
-0.0419617	
-0.0434875	
-0.0442505	
-0.042572	
-0.0401306	
-0.0366211	
-0.0338745	
-0.032196	
-0.032959	
-0.03479	
-0.0369263	
-0.0346375	
-0.0323486	
-0.0297546	
-0.0274658	
-0.0248718	
-0.0265503	
-0.0270081	
-0.0294495	
-0.0276184	
-0.0254822	
-0.022583	
-0.0196838	
-0.0177002	
-0.0190735	
-0.0204468	
-0.0221252	
-0.0216675	
-0.0190735	
-0.0154114	
-0.01297	
-0.0125122	
-0.0141907	
-0.0158691	
-0.0175476	
-0.0177002	
-0.0149536	
-0.0117493	
-0.0100708	
-0.00762939	
-0.00961304	
-0.0123596	
-0.0125122	
-0.0128174	
-0.0102234	
-0.00747681	
-0.00518799	
-0.00534058	
-0.0050354	
-0.00732422	
-0.0100708	
-0.0100708	
-0.00778198	
-0.00518799	
-0.00259399	
-0.00259399	
-0.00305176	
-0.00518799	
-0.00747681	
-0.00762939	
-0.0050354	
-0.00305176	
-0.000152588	
-0.000305176	
-0.00106812	
-0.00305176	
-0.00488281	
-0.00534058	
-0.00335693	
0	
0.00213623	
0.00457764	
0.00717163	
0.00869751	
0.0125122	
0.0195312	
0.0291443	
0.0411987	
0.0506592	
0.0602722	
0.0662231	
0.0712585	
0.0759888	
0.0831604	
0.0904846	
0.098114	
0.105591	
0.109253	
0.110168	
0.109711	
0.106964	
0.107422	
0.107117	
0.107422	
0.107422	
0.10437	
0.0976562	
0.0906372	
0.0810242	
0.0735474	
0.0675964	
0.0616455	
0.0553894	
0.0462341	
0.0340271	
0.0215149	
0.00961304	
-0.000457764	
-0.00991821	
-0.017395	
-0.025177	
-0.03479	
-0.0418091	
-0.0511169	
-0.0566101	
-0.0590515	
-0.0590515	
-0.0569153	
-0.0547791	
-0.0543213	
-0.0563049	
-0.0570679	
-0.0592041	
-0.0582886	
-0.0547791	
-0.0515747	
-0.0492859	
-0.0468445	
-0.0489807	
-0.0495911	
-0.0515747	
-0.0497437	
-0.0474548	
-0.0436401	
-0.0413513	
-0.0395203	
-0.0402832	
-0.0419617	
-0.0439453	
-0.0422668	
-0.039978	
-0.0372314	
-0.0349426	
-0.0325012	
-0.0338745	
-0.0350952	
-0.0367737	
-0.0364685	
-0.0343323	
-0.0302124	
-0.0297546	
-0.0315857	
-0.0395203	
-0.0523376	
-0.0668335	
-0.0828552	
-0.0982666	
-0.112915	
-0.122223	
-0.117188	
-0.0904846	
-0.0424194	
0.0265503	
0.110016	
0.209198	
0.315094	
0.424652	
0.534821	
0.6427	
0.750122	
0.846405	
0.917053	
0.951538	
0.944824	
0.905609	
0.836945	
0.744629	
0.639038	
0.522156	
0.401764	
0.278778	
0.157166	
0.039978	
-0.063324	
-0.148773	
-0.212402	
-0.2565	
-0.284424	
-0.296478	
-0.299072	
-0.297241	
-0.292206	
-0.287323	
-0.284119	
-0.279236	
-0.273285	
-0.265045	
-0.257263	
-0.249634	
-0.24353	
-0.240479	
-0.23819	
-0.234833	
-0.230103	
-0.22522	
-0.217743	
-0.21286	
-0.20874	
-0.20813	
-0.205841	
-0.203857	
-0.198975	
-0.191956	
-0.184021	
-0.176849	
-0.171051	
-0.167542	
-0.164948	
-0.162201	
-0.156708	
-0.150452	
-0.142822	
-0.137329	
-0.132141	
-0.129547	
-0.127716	
-0.125427	
-0.121002	
-0.115662	
-0.108185	
-0.101318	
-0.0964355	
-0.0941467	
-0.0933838	
-0.0901794	
-0.0856018	
-0.0791931	
-0.071106	
-0.0646973	
-0.059967	
-0.0567627	
-0.0546265	
-0.0534058	
-0.0498962	
-0.0450134	
-0.039978	
-0.0352478	
-0.0323486	
-0.0320435	
-0.0344849	
-0.0344849	
-0.0315857	
-0.027771	
-0.0221252	
-0.0178528	
-0.014801	
-0.0146484	
-0.0149536	
-0.0126648	
-0.010376	
-0.00579834	
0.000457764	
0.00534058	
0.0088501	
0.00976562	
0.00930786	
0.0119019	
0.0149536	
0.0189209	
0.0247192	
0.0296021	
0.0337219	
0.0338745	
0.0343323	
0.0357056	
0.0393677	
0.0454712	
0.0517273	
0.0593567	
0.0639343	
0.0672913	
0.0680542	
0.0704956	
0.0749207	
0.0784302	
0.0846863	
0.0888062	
0.0917053	
0.0918579	
0.090332	
0.0878906	
0.0856018	
0.0848389	
0.0830078	
0.0805664	
0.0750732	
0.0679016	
0.0587463	
0.0512695	
0.0442505	
0.0382996	
0.0337219	
0.0273132	
0.0193787	
0.00976562	
-0.00244141	
-0.0158691	
-0.0271606	
-0.0395203	
-0.0491333	
-0.0616455	
-0.0746155	
-0.0901794	
-0.105438	
-0.11795	
-0.127563	
-0.133362	
-0.135651	
-0.137939	
-0.141907	
-0.146942	
-0.150604	
-0.153961	
-0.155029	
-0.151672	
-0.147095	
-0.142822	
-0.139923	
-0.139923	
-0.139618	
-0.13916	
-0.136871	
-0.131989	
-0.126801	
-0.12085	
-0.118103	
-0.117645	
-0.118103	
-0.115662	
-0.113678	
-0.109863	
-0.105286	
-0.10025	
-0.096283	
-0.0958252	
-0.0959778	
-0.0958252	
-0.0952148	
-0.0907898	
-0.0866699	
-0.0816345	
-0.0805664	
-0.0790405	
-0.0811768	
-0.0802612	
-0.0784302	
-0.0744629	
-0.0708008	
-0.0665283	
-0.0639343	
-0.0640869	
-0.0662231	
-0.0663757	
-0.0643921	
-0.0614929	
-0.0572205	
-0.0544739	
-0.0517273	
-0.0520325	
-0.0538635	
-0.0543213	
-0.0524902	
-0.0497437	
-0.0460815	
-0.0419617	
-0.0396729	
-0.0416565	
-0.0421143	
-0.0440979	
-0.0422668	
-0.0398254	
-0.0363159	
-0.0328064	
-0.0323486	
-0.032196	
-0.0341797	
-0.0346375	
-0.0344849	
-0.0312805	
-0.0276184	
-0.0245667	
-0.0222778	
-0.0247192	
-0.0256348	
-0.0273132	
-0.0273132	
-0.0238037	
-0.019989	
-0.0175476	
-0.0175476	
-0.0177002	
-0.0198364	
-0.0224304	
-0.0216675	
-0.0190735	
-0.0152588	
-0.0128174	
-0.0125122	
-0.0120544	
-0.0146484	
-0.017395	
-0.0167847	
-0.0141907	
-0.0105286	
-0.00793457	
-0.00762939	
-0.00854492	
-0.0100708	
-0.0123596	
-0.012207	
-0.0102234	
-0.00778198	
-0.00534058	
-0.00564575	
-0.00534058	
-0.00778198	
-0.00961304	
-0.0100708	
-0.00747681	
-0.00457764	
-0.00274658	
-0.00106812	
-0.00274658	
-0.00534058	
-0.00747681	
-0.00747681	
-0.00518799	
-0.00259399	
-0.000152588	
-0.000305176	
-0.000915527	
-0.00350952	
-0.00518799	
-0.00518799	
-0.00457764	
-0.000762939	
0.00320435	
0.00717163	
0.0114441	
0.0152588	
0.0196838	
0.0282288	
0.0382996	
0.0486755	
0.0584412	
0.0683594	
0.0737	
0.0776672	
0.08255	
0.0883484	
0.0956726	
0.10437	
0.110474	
0.112152	
0.112457	
0.109711	
0.106964	
0.105133	
0.105133	
0.104828	
0.104218	
0.100098	
0.0927734	
0.0827026	
0.0730896	
0.065918	
0.0590515	
0.0527954	
0.045929	
0.0366211	
0.0245667	
0.0117493	
-0.000457764	
-0.010376	
-0.0198364	
-0.0273132	
-0.0337219	
-0.0401306	
-0.0474548	
-0.0543213	
-0.0592041	
-0.0613403	
-0.0592041	
-0.0572205	
-0.0541687	
-0.0543213	
-0.0541687	
-0.0564575	
-0.0585938	
-0.0569153	
-0.0541687	
-0.0508118	
-0.0473022	
-0.0468445	
-0.0471497	
-0.0488281	
-0.0488281	
-0.0474548	
-0.0447083	
-0.0421143	
-0.0395203	
-0.0370789	
-0.0390625	
-0.0415039	
-0.0416565	
-0.0416565	
-0.0389099	
-0.0349426	
-0.0325012	
-0.0320435	
-0.0323486	
-0.0346375	
-0.0366211	
-0.0349426	
-0.032959	
-0.0315857	
-0.0320435	
-0.0375366	
-0.0502014	
-0.065918	
-0.0830078	
-0.0996399	
-0.115967	
-0.125275	
-0.117645	
-0.0901794	
-0.0415039	
0.0253296	
0.108032	
0.204315	
0.311584	
0.4216	
0.533905	
0.644836	
0.752411	
0.849457	
0.916901	
0.947571	
0.94162	
0.903168	
0.836182	
0.747528	
0.641785	
0.525055	
0.402222	
0.27832	
0.154419	
0.0379944	
-0.0640869	
-0.146027	
-0.20874	
-0.254974	
-0.282135	
-0.298309	
-0.301361	
-0.298767	
-0.292816	
-0.286407	
-0.281525	
-0.277557	
-0.272675	
-0.267029	
-0.259247	
-0.249634	
-0.242615	
-0.237274	
-0.233612	
-0.233154	
-0.229797	
-0.226288	
-0.221405	
-0.215759	
-0.209045	
-0.205078	
-0.203705	
-0.201263	
-0.198669	
-0.194397	
-0.187225	
-0.179138	
-0.171661	
-0.166626	
-0.162048	
-0.159607	
-0.156708	
-0.151825	
-0.145721	
-0.138092	
-0.131989	
-0.127258	
-0.125122	
-0.122681	
-0.121002	
-0.117188	
-0.110626	
-0.10376	
-0.0976562	
-0.0924683	
-0.0891113	
-0.0883484	
-0.0852966	
-0.080719	
-0.0737	
-0.0663757	
-0.0598145	
-0.0549316	
-0.0517273	
-0.0512695	
-0.0492859	
-0.0462341	
-0.0418091	
-0.0361633	
-0.032196	
-0.0297546	
-0.0292969	
-0.0299072	
-0.0297546	
-0.0274658	
-0.0242615	
-0.0190735	
-0.0140381	
-0.0102234	
-0.00976562	
-0.00961304	
-0.00961304	
-0.00671387	
-0.00198364	
0.00396729	
0.00915527	
0.0119019	
0.0140381	
0.0144958	
0.014801	
0.0177002	
0.022583	
0.0273132	
0.0323486	
0.0358582	
0.0366211	
0.037384	
0.0396729	
0.043335	
0.0495911	
0.0566101	
0.0642395	
0.0688171	
0.0704956	
0.0727844	
0.0740051	
0.0773621	
0.0810242	
0.0874329	
0.0923157	
0.0927734	
0.0930786	
0.0895691	
0.0854492	
0.0828552	
0.0805664	
0.0779724	
0.0756836	
0.0700378	
0.0627136	
0.0531006	
0.0434875	
0.0361633	
0.0306702	
0.0248718	
0.0192261	
0.0117493	
0	
-0.0132751	
-0.0273132	
-0.0393677	
-0.0520325	
-0.062561	
-0.0744629	
-0.088501	
-0.104065	
-0.117798	
-0.128021	
-0.135498	
-0.139313	
-0.140991	
-0.142365	
-0.144806	
-0.14801	
-0.15152	
-0.153809	
-0.151825	
-0.149841	
-0.145416	
-0.140533	
-0.137787	
-0.137482	
-0.137482	
-0.137177	
-0.132904	
-0.129242	
-0.123291	
-0.118561	
-0.115662	
-0.115204	
-0.115509	
-0.11322	
-0.111237	
-0.107269	
-0.102539	
-0.0985718	
-0.0958252	
-0.0932312	
-0.0956726	
-0.0935364	
-0.0926208	
-0.0889587	
-0.0837708	
-0.0802612	
-0.0790405	
-0.0788879	
-0.0787354	
-0.0787354	
-0.0767517	
-0.0730896	
-0.0697327	
-0.0643921	
-0.0621033	
-0.0624084	
-0.0642395	
-0.0639343	
-0.063324	
-0.0595093	
-0.0556946	
-0.0520325	
-0.0491333	
-0.0491333	
-0.0515747	
-0.0517273	
-0.0511169	
-0.0473022	
-0.0445557	
-0.0411987	
-0.0392151	
-0.0398254	
-0.0416565	
-0.0421143	
-0.0421143	
-0.0387573	
-0.0352478	
-0.0323486	
-0.0318909	
-0.0323486	
-0.03479	
-0.0346375	
-0.0341797	
-0.0315857	
-0.0273132	
-0.0239563	
-0.0222778	
-0.0230408	
-0.0250244	
-0.0271606	
-0.0248718	
-0.0230408	
-0.019989	
-0.017395	
-0.0149536	
-0.017395	
-0.0190735	
-0.019989	
-0.019989	
-0.0175476	
-0.0152588	
-0.0125122	
-0.0125122	
-0.0125122	
-0.0149536	
-0.0177002	
-0.0164795	
-0.0138855	
-0.0105286	
-0.00823975	
-0.00762939	
-0.00839233	
-0.0100708	
-0.0125122	
-0.0123596	
-0.0105286	
-0.00778198	
-0.00534058	
-0.00518799	
-0.00534058	
-0.00778198	
-0.00961304	
-0.00930786	
-0.00747681	
-0.00442505	
-0.00228882	
-0.000152588	
-0.00320435	
-0.00518799	
-0.00778198	
-0.00656128	
-0.00411987	
-0.00198364	
0.000610352	
0.00228882	
0	
-0.00244141	
-0.00473022	
-0.0050354	
-0.00167847	
0.00152588	
0.00793457	
0.0126648	
0.0167847	
0.0213623	
0.0273132	
0.0369263	
0.0462341	
0.0561523	
0.0674438	
0.0750732	
0.0813293	
0.0845337	
0.0883484	
0.0946045	
0.100708	
0.106964	
0.112	
0.112152	
0.111389	
0.107727	
0.105133	
0.102692	
0.102386	
0.102539	
0.100555	
0.0944519	
0.085144	
0.0750732	
0.0654602	
0.0576782	
0.0500488	
0.043335	
0.0366211	
0.0262451	
0.014801	
0.0012207	
-0.0111389	
-0.022583	
-0.0302124	
-0.0364685	
-0.0413513	
-0.0465393	
-0.0517273	
-0.0575256	
-0.0611877	
-0.0616455	
-0.0598145	
-0.0572205	
-0.0541687	
-0.0540161	
-0.0541687	
-0.0549316	
-0.0566101	
-0.0547791	
-0.0521851	
-0.0492859	
-0.0465393	
-0.0445557	
-0.045929	
-0.0468445	
-0.0494385	
-0.0486755	
-0.0460815	
-0.0424194	
-0.0396729	
-0.037384	
-0.0395203	
-0.0401306	
-0.0418091	
-0.0419617	
-0.0393677	
-0.0350952	
-0.032196	
-0.0320435	
-0.0325012	
-0.0344849	
-0.0366211	
-0.0361633	
-0.0344849	
-0.0346375	
-0.0390625	
-0.0480652	
-0.0624084	
-0.0810242	
-0.098877	
-0.117798	
-0.127258	
-0.119781	
-0.0895691	
-0.0393677	
0.0286865	
0.109863	
0.205383	
0.30899	
0.419159	
0.532532	
0.645447	
0.754395	
0.850983	
0.917816	
0.947723	
0.94101	
0.900879	
0.834961	
0.748291	
0.644836	
0.528412	
0.405426	
0.279694	
0.153351	
0.0358582	
-0.0663757	
-0.14679	
-0.20752	
-0.251312	
-0.282135	
-0.297089	
-0.303802	
-0.301971	
-0.2948	
-0.286713	
-0.279999	
-0.273895	
-0.270081	
-0.266113	
-0.259705	
-0.252228	
-0.244904	
-0.237579	
-0.232391	
-0.22995	
-0.228119	
-0.22644	
-0.222321	
-0.217743	
-0.211487	
-0.205231	
-0.201263	
-0.198517	
-0.196838	
-0.194244	
-0.189514	
-0.182037	
-0.17395	
-0.166626	
-0.160065	
-0.157166	
-0.154724	
-0.151367	
-0.1474	
-0.141296	
-0.13504	
-0.127869	
-0.122986	
-0.120697	
-0.120544	
-0.117798	
-0.113373	
-0.107117	
-0.100098	
-0.0927734	
-0.087738	
-0.085907	
-0.0834656	
-0.0813293	
-0.0758362	
-0.0691223	
-0.0613403	
-0.0547791	
-0.0509644	
-0.0492859	
-0.0480652	
-0.0466919	
-0.0444031	
-0.039978	
-0.0361633	
-0.0325012	
-0.0299072	
-0.0299072	
-0.0296021	
-0.0294495	
-0.0265503	
-0.022583	
-0.0180054	
-0.0132751	
-0.010376	
-0.00793457	
-0.00778198	
-0.00717163	
-0.00350952	
0.0012207	
0.00747681	
0.0131226	
0.0154114	
0.0167847	
0.0169373	
0.0189209	
0.0215149	
0.0247192	
0.0309753	
0.0361633	
0.0386047	
0.0408936	
0.0413513	
0.0436401	
0.0480652	
0.0540161	
0.0616455	
0.0689697	
0.0727844	
0.075531	
0.0750732	
0.0776672	
0.0804138	
0.0846863	
0.0898743	
0.092926	
0.0952148	
0.0918579	
0.0866699	
0.0822449	
0.0775146	
0.0753784	
0.0727844	
0.0697327	
0.0639343	
0.055542	
0.0456238	
0.0364685	
0.0286865	
0.0222778	
0.0166321	
0.0100708	
0.00183105	
-0.0111389	
-0.0259399	
-0.0405884	
-0.0540161	
-0.0662231	
-0.0765991	
-0.0888062	
-0.101318	
-0.11322	
-0.125732	
-0.133209	
-0.139618	
-0.142365	
-0.144196	
-0.144806	
-0.145874	
-0.148315	
-0.151825	
-0.15213	
-0.149994	
-0.147552	
-0.14267	
-0.138245	
-0.135193	
-0.132751	
-0.132294	
-0.132446	
-0.13092	
-0.126648	
-0.121918	
-0.115814	
-0.113068	
-0.112915	
-0.112762	
-0.111237	
-0.109406	
-0.10498	
-0.0997925	
-0.096283	
-0.0930786	
-0.0930786	
-0.0932312	
-0.0933838	
-0.0901794	
-0.0863647	
-0.0813293	
-0.078125	
-0.0741577	
-0.0737	
-0.0761414	
-0.0761414	
-0.0743103	
-0.0717163	
-0.0668335	
-0.0630188	
-0.0611877	
-0.0619507	
-0.0614929	
-0.0617981	
-0.06073	
-0.0569153	
-0.0532532	
-0.0497437	
-0.0491333	
-0.0492859	
-0.0495911	
-0.0517273	
-0.0495911	
-0.0469971	
-0.0434875	
-0.0398254	
-0.037384	
-0.0396729	
-0.0396729	
-0.0419617	
-0.0396729	
-0.0372314	
-0.0349426	
-0.0309753	
-0.0299072	
-0.0300598	
-0.0325012	
-0.032196	
-0.032196	
-0.0297546	
-0.0263977	
-0.022583	
-0.0224304	
-0.0222778	
-0.0248718	
-0.0248718	
-0.0250244	
-0.022583	
-0.0195312	
-0.0167847	
-0.0151062	
-0.017395	
-0.0183105	
-0.0198364	
-0.0195312	
-0.017395	
-0.0141907	
-0.0108337	
-0.00991821	
-0.0120544	
-0.014801	
-0.0149536	
-0.014801	
-0.01297	
-0.0105286	
-0.00762939	
-0.00717163	
-0.00823975	
-0.0100708	
-0.0125122	
-0.0125122	
-0.0102234	
-0.00762939	
-0.00518799	
-0.00396729	
-0.00488281	
-0.00762939	
-0.0102234	
-0.00869751	
-0.00778198	
-0.00411987	
-0.00228882	
-0.00152588	
-0.00274658	
-0.00488281	
-0.00747681	
-0.00778198	
-0.00488281	
-0.00228882	
-0.000305176	
0.00228882	
-0.000152588	
-0.00366211	
-0.00518799	
-0.00534058	
-0.00198364	
0.0050354	
0.0125122	
0.0186157	
0.0239563	
0.0300598	
0.0369263	
0.0439453	
0.0549316	
0.0660706	
0.0759888	
0.083313	
0.0878906	
0.0912476	
0.0947571	
0.10025	
0.106049	
0.110779	
0.114288	
0.114746	
0.111389	
0.10788	
0.103912	
0.101776	
0.100098	
0.0976562	
0.0944519	
0.087738	
0.0776672	
0.067749	
0.0579834	
0.0480652	
0.0408936	
0.0335693	
0.0260925	
0.0164795	
0.00411987	
-0.00976562	
-0.0221252	
-0.0328064	
-0.0390625	
-0.0437927	
-0.0468445	
-0.0505066	
-0.0540161	
-0.0585938	
-0.0616455	
-0.0613403	
-0.0592041	
-0.0569153	
-0.0532532	
-0.0518799	
-0.0517273	
-0.0541687	
-0.0561523	
-0.0540161	
-0.0520325	
-0.0492859	
-0.0457764	
-0.0444031	
-0.0444031	
-0.0469971	
-0.0466919	
-0.0468445	
-0.0444031	
-0.0410461	
-0.0375366	
-0.0369263	
-0.0369263	
-0.0395203	
-0.0393677	
-0.0395203	
-0.037384	
-0.0337219	
-0.0315857	
-0.0299072	
-0.0315857	
-0.0331116	
-0.0346375	
-0.035553	
-0.0372314	
-0.0415039	
-0.0498962	
-0.0614929	
-0.0775146	
-0.0965881	
-0.116272	
-0.129852	
-0.121918	
-0.0914001	
-0.0390625	
0.030365	
0.113678	
0.207214	
0.308228	
0.416718	
0.52948	
0.643311	
0.75592	
0.853424	
0.919952	
0.948486	
0.938263	
0.89798	
0.830994	
0.746155	
0.643616	
0.530701	
0.40741	
0.280762	
0.152893	
0.0344849	
-0.0689697	
-0.149841	
-0.20813	
-0.25116	
-0.279694	
-0.296478	
-0.303955	
-0.303192	
-0.296326	
-0.288849	
-0.278473	
-0.272827	
-0.267944	
-0.265198	
-0.26001	
-0.254211	
-0.247345	
-0.239868	
-0.232697	
-0.228271	
-0.22583	
-0.223236	
-0.222168	
-0.218658	
-0.213776	
-0.207977	
-0.202637	
-0.197906	
-0.194244	
-0.191803	
-0.189667	
-0.183716	
-0.175934	
-0.168762	
-0.161133	
-0.155029	
-0.15213	
-0.149689	
-0.146484	
-0.141296	
-0.136566	
-0.1297	
-0.123444	
-0.118103	
-0.115662	
-0.115662	
-0.112915	
-0.10849	
-0.102844	
-0.09552	
-0.0889587	
-0.0840759	
-0.0813293	
-0.0787354	
-0.0752258	
-0.0706482	
-0.0642395	
-0.058136	
-0.0511169	
-0.0466919	
-0.0445557	
-0.0447083	
-0.0444031	
-0.0419617	
-0.0372314	
-0.0337219	
-0.0299072	
-0.0274658	
-0.0276184	
-0.0276184	
-0.0263977	
-0.0238037	
-0.0204468	
-0.0140381	
-0.00915527	
-0.00671387	
-0.0050354	
-0.00534058	
-0.00427246	
-0.000610352	
0.00442505	
0.010376	
0.0152588	
0.0187683	
0.0190735	
0.0193787	
0.0218201	
0.0236511	
0.0274658	
0.0325012	
0.0376892	
0.0411987	
0.0434875	
0.0447083	
0.0468445	
0.052948	
0.0592041	
0.0662231	
0.0726318	
0.0765991	
0.0776672	
0.0773621	
0.0804138	
0.0827026	
0.0874329	
0.091095	
0.0952148	
0.0941467	
0.0907898	
0.0848389	
0.0784302	
0.0746155	
0.070343	
0.0671387	
0.0636292	
0.0575256	
0.0482178	
0.0386047	
0.0283813	
0.019989	
0.0135803	
0.00854492	
0.00137329	
-0.00900269	
-0.0224304	
-0.0378418	
-0.052948	
-0.0666809	
-0.0791931	
-0.0912476	
-0.101166	
-0.111084	
-0.123291	
-0.133057	
-0.140381	
-0.144806	
-0.1474	
-0.1474	
-0.147247	
-0.147552	
-0.148926	
-0.150909	
-0.151062	
-0.148773	
-0.144806	
-0.140381	
-0.135498	
-0.132599	
-0.131378	
-0.132599	
-0.130005	
-0.128021	
-0.123291	
-0.118408	
-0.11322	
-0.110626	
-0.108185	
-0.10788	
-0.108032	
-0.106049	
-0.102386	
-0.0973511	
-0.0924683	
-0.0897217	
-0.088501	
-0.091095	
-0.0901794	
-0.0888062	
-0.0843811	
-0.0801086	
-0.0762939	
-0.0737	
-0.0735474	
-0.0738525	
-0.0740051	
-0.0737	
-0.0704956	
-0.0654602	
-0.0616455	
-0.0593567	
-0.0588989	
-0.059967	
