-253
-447
-579
-665
-739
-814
-871
-888
-904
-937
-982
-1027
-1082
-1125
-1171
-1209
-1243
-1269
-1309
-1374
-1432
-1494
-1582
-1651
-1682
-1730
-1806
-1891
-1989
-2081
-2132
-2159
-2164
-2167
-2174
-2207
-2268
-2311
-2335
-2341
-2330
-2297
-2289
-2294
-2306
-2322
-2338
-2341
-2329
-2304
-2300
-2304
-2335
-2351
-2342
-2341
-2329
-2306
-2312
-2333
-2358
-2368
-2369
-2364
-2324
-2296
-2303
-2327
-2357
-2370
-2396
-2387
-2364
-2337
-2307
-2326
-2347
-2381
-2399
-2409
-2386
-2350
-2338
-2344
-2355
-2379
-2396
-2396
-2374
-2358
-2362
-2364
-2387
-2388
-2396
-2387
-2379
-2359
-2354
-2369
-2392
-2399
-2410
-2410
-2377
-2347
-2347
-2359
-2393
-2416
-2435
-2431
-2401
-2362
-2352
-2359
-2372
-2394
-2419
-2427
-2408
-2381
-2375
-2369
-2382
-2413
-2424
-2426
-2414
-2401
-2375
-2389
-2406
-2419
-2424
-2412
-2397
-2371
-2378
-2403
-2424
-2442
-2449
-2432
-2392
-2374
-2378
-2387
-2410
-2436
-2464
-2441
-2420
-2382
-2374
-2382
-2411
-2432
-2460
-2457
-2423
-2396
-2375
-2351
-2333
-2311
-2276
-2228
-2182
-2111
-2061
-2052
-2034
-2022
-1996
-1965
-1929
-1865
-1852
-1859
-1875
-1896
-1907
-1887
-1862
-1837
-1827
-1868
-1935
-1984
-2009
-2029
-2039
-2014
-2029
-2091
-2157
-2209
-2282
-2329
-2366
-2379
-2404
-2405
-2417
-2443
-2469
-2455
-2449
-2427
-2414
-2422
-2437
-2440
-2452
-2450
-2435
-2407
-2403
-2417
-2444
-2481
-2483
-2467
-2439
-2415
-2407
-2421
-2456
-2481
-2486
-2470
-2452
-2419
-2401
-2404
-2434
-2462
-2484
-2484
-2457
-2420
-2443
-2519
-2629
-2746
-2877
-2981
-3075
-3156
-3104
-2741
-2266
-1741
-1196
-637
-65
533
1094
1647
2200
2723
2979
2756
2318
1826
1284
716
136
-441
-1014
-1581
-2124
-2627
-3013
-3134
-3101
-3046
-2969
-2852
-2722
-2585
-2485
-2443
-2449
-2482
-2489
-2485
-2476
-2452
-2437
-2439
-2469
-2478
-2473
-2448
-2422
-2401
-2392
-2387
-2401
-2419
-2434
-2416
-2384
-2357
-2345
-2366
-2401
-2415
-2423
-2415
-2377
-2319
-2297
-2299
-2311
-2342
-2349
-2341
-2301
-2252
-2251
-2253
-2258
-2262
-2266
-2259
-2244
-2203
-2192
-2186
-2202
-2194
-2172
-2154
-2123
-2079
-2064
-2049
-2066
-2076
-2086
-2057
-2020
-1976
-1958
-1966
-1985
-2005
-2015
-2001
-1967
-1906
-1889
-1893
-1899
-1913
-1929
-1912
-1865
-1823
-1792
-1769
-1764
-1748
-1728
-1691
-1649
-1596
-1552
-1526
-1509
-1498
-1483
-1478
-1431
-1386
-1377
-1370
-1378
-1403
-1413
-1409
-1391
-1367
-1374
-1393
-1436
-1489
-1525
-1559
-1571
-1575
-1586
-1627
-1694
-1777
-1867
-1941
-2002
-2024
-2084
-2157
-2232
-2296
-2339
-2358
-2377
-2382
-2405
-2441
-2474
-2485
-2495
-2490
-2470
-2462
-2469
-2479
-2491
-2510
-2510
-2496
-2472
-2453
-2448
-2461
-2490
-2513
-2521
-2521
-2493
-2460
-2435
-2459
-2483
-2502
-2524
-2521
-2498
-2471
-2458
-2452
-2464
-2490
-2497
-2504
-2489
-2472
-2472
-2486
-2496
-2496
-2502
-2504
-2484
-2454
-2454
-2479
-2498
-2522
-2526
-2502
-2481
-2463
-2452
-2465
-2499
-2516
-2524
-2527
-2495
-2451
-2436
-2449
-2492
-2517
-2539
-2532
-2506
-2471
-2451
-2447
-2474
-2496
-2518
-2507
-2502
-2478
-2479
-2471
-2494
-2505
-2506
-2497
-2477
-2465
-2471
-2486
-2499
-2516
-2531
-2509
-2482
-2464
-2454
-2474
-2500
-2519
-2526
-2525
-2506
-2471
-2464
-2474
-2491
-2502
-2524
-2525
-2511
-2491
-2473
-2465
-2486
-2512
-2527
-2521
-2510
-2490
-2478
-2490
-2506
-2507
-2519
-2513
-2502
-2472
-2429
-2406
-2394
-2361
-2315
-2253
-2193
-2127
-2089
-2079
-2092
-2089
-2069
-2033
-1981
-1927
-1904
-1906
-1915
-1943
-1970
-1987
-1956
-1925
-1934
-1955
-1998
-2042
-2082
-2103
-2125
-2137
-2164
-2221
-2276
-2326
-2382
-2429
-2452
-2447
-2464
-2481
-2506
-2517
-2524
-2522
-2497
-2472
-2458
-2479
-2510
-2542
-2535
-2534
-2512
-2486
-2463
-2466
-2496
-2524
-2541
-2540
-2522
-2496
-2482
-2471
-2487
-2515
-2521
-2529
-2512
-2492
-2483
-2482
-2502
-2511
-2519
-2524
-2501
-2497
-2570
-2692
-2812
-2926
-3044
-3146
-3234
-3179
-2835
-2353
-1849
-1324
-788
-236
335
934
1524
2089
2638
2957
2749
2299
1791
1274
756
216
-361
-944
-1525
-2090
-2643
-3062
-3174
-3152
-3091
-2996
-2897
-2801
-2671
-2555
-2503
-2491
-2512
-2529
-2538
-2519
-2492
-2477
-2463
-2476
-2507
-2536
-2533
-2506
-2469
-2429
-2412
-2415
-2431
-2437
-2476
-2481
-2449
-2423
-2411
-2406
-2410
-2432
-2442
-2424
-2411
-2377
-2351
-2364
-2369
-2364
-2368
-2354
-2331
-2298
-2284
-2296
-2299
-2303
-2304
-2280
-2261
-2236
-2205
-2206
-2226
-2226
-2227
-2204
-2166
-2111
-2071
-2062
-2068
-2086
-2111
-2107
-2084
-2034
-2011
-1996
-2002
-2023
-2029
-2016
-2009
-1974
-1944
-1935
-1939
-1926
-1916
-1906
-1868
-1838
-1819
-1806
-1787
-1769
-1751
-1699
-1640
-1590
-1539
-1521
-1524
-1524
-1512
-1511
-1481
-1429
-1377
-1361
-1380
-1426
-1450
-1466
-1467
-1446
-1430
-1426
-1458
-1509
-1567
-1612
-1647
-1659
-1669
-1706
-1781
-1860
-1941
-2014
-2066
-2109
-2173
-2248
-2316
-2360
-2404
-2420
-2431
-2434
-2446
-2477
-2505
-2539
-2557
-2549
-2516
-2481
-2463
-2477
-2508
-2524
-2541
-2548
-2536
-2506
-2491
-2476
-2492
-2525
-2545
-2537
-2534
-2522
-2496
-2492
-2504
-2508
-2534
-2546
-2522
-2507
-2489
-2496
-2515
-2538
-2551
-2545
-2519
-2487
-2479
-2489
-2524
-2552
-2554
-2553
-2529
-2487
-2462
-2474
-2501
-2529
-2547
-2564
-2552
-2517
-2487
-2479
-2493
-2524
-2537
-2552
-2550
-2526
-2493
-2494
-2511
-2524
-2535
-2546
-2532
-2514
-2504
-2501
-2519
-2531
-2538
-2532
-2521
-2501
-2479
-2489
-2510
-2546
-2568
-2553
-2534
-2504
-2471
-2472
-2501
-2524
-2556
-2561
-2552
-2525
-2488
-2479
-2503
-2527
-2541
-2548
-2546
-2516
-2484
-2490
-2513
-2517
-2534
-2544
-2532
-2512
-2500
-2514
-2537
-2546
-2552
-2553
-2527
-2505
-2491
-2492
-2517
-2538
-2570
-2551
-2539
-2486
-2427
-2396
-2362
-2333
-2320
-2284
-2227
-2161
-2114
-2077
-2063
-2072
-2070
-2039
-2016
-1972
-1952
-1949
-1961
-1971
-1982
-1975
-1968
-1971
-1991
-2013
-2060
-2095
-2133
-2151
-2162
-2180
-2197
-2250
-2321
-2391
-2446
-2483
-2509
-2494
-2474
-2490
-2504
-2529
-2554
-2567
-2552
-2531
-2496
-2484
-2501
-2530
-2542
-2548
-2552
-2528
-2509
-2500
-2519
-2528
-2533
-2539
-2533
-2519
-2504
-2511
-2527
-2547
-2559
-2551
-2529
-2502
-2496
-2489
-2517
-2548
-2558
-2549
-2546
-2565
-2626
-2732
-2851
-2988
-3136
-3256
-3308
-3066
-2604
-2057
-1527
-1001
-465
79
638
1215
1804
2383
2865
2896
2531
2009
1469
939
395
-151
-709
-1286
-1882
-2439
-2947
-3186
-3182
-3116
-3052
-2972
-2877
-2768
-2645
-2544
-2486
-2484
-2512
-2533
-2570
-2584
-2562
-2537
-2514
-2486
-2489
-2516
-2524
-2522
-2519
-2482
-2453
-2438
-2445
-2459
-2474
-2481
-2473
-2459
-2439
-2437
-2446
-2454
-2468
-2451
-2435
-2400
-2366
-2358
-2380
-2397
-2392
-2391
-2371
-2325
-2286
-2274
-2291
-2301
-2326
-2329
-2303
-2270
-2224
-2197
-2206
-2219
-2212
-2209
-2192
-2155
-2106
-2081
-2094
-2102
-2095
-2096
-2084
-2055
-2031
-2022
-2026
-2046
-2039
-2016
-2006
-1986
-1952
-1928
-1939
-1949
-1945
-1946
-1908
-1844
-1806
-1779
-1759
-1755
-1752
-1722
-1677
-1617
-1551
-1519
-1510
-1510
-1509
-1512
-1494
-1454
-1411
-1399
-1405
-1429
-1447
-1477
-1486
-1463
-1448
-1469
-1516
-1565
-1624
-1653
-1670
-1686
-1704
-1744
-1827
-1926
-2022
-2097
-2155
-2189
-2229
-2278
-2323
-2386
-2447
-2485
-2492
-2497
-2504
-2496
-2512
-2528
-2541
-2561
-2565
-2532
-2517
-2508
-2519
-2525
-2534
-2563
-2551
-2529
-2517
-2515
-2536
-2554
-2566
-2571
-2550
-2522
-2497
-2509
-2541
-2557
-2558
-2569
-2554
-2517
-2500
-2506
-2515
-2541
-2576
-2586
-2567
-2541
-2514
-2497
-2508
-2527
-2549
-2564
-2572
-2547
-2520
-2513
-2524
-2535
-2549
-2566
-2560
-2530
-2518
-2519
-2529
-2551
-2572
-2565
-2549
-2539
-2512
-2506
-2527
-2557
-2574
-2581
-2564
-2524
-2504
-2498
-2519
-2542
-2569
-2576
-2567
-2536
-2506
-2502
-2514
-2527
-2544
-2560
-2574
-2546
-2507
-2508
-2516
-2527
-2548
-2554
-2556
-2524
-2515
-2526
-2537
-2544
-2556
-2555
-2539
-2518
-2490
-2499
-2542
-2559
-2562
-2560
-2562
-2521
-2497
-2503
-2508
-2542
-2572
-2571
-2567
-2549
-2516
-2490
-2509
-2528
-2543
-2562
-2551
-2507
-2445
-2388
-2347
-2313
-2282
-2248
-2202
-2156
-2114
-2089
-2080
-2084
-2058
-2025
-1992
-1972
-1950
-1960
-1976
-1989
-2006
-2022
-2014
-1995
-2009
-2014
-2061
-2117
-2164
-2209
-2240
-2240
-2253
-2279
-2329
-2414
-2468
-2523
-2563
-2546
-2516
-2507
-2517
-2521
-2546
-2559
-2556
-2542
-2529
-2524
-2530
-2562
-2581
-2556
-2544
-2528
-2517
-2498
-2521
-2556
-2569
-2574
-2566
-2543
-2503
-2483
-2504
-2541
-2554
-2580
-2574
-2544
-2512
-2499
-2512
-2542
-2557
-2565
-2599
-2653
-2724
-2817
-2925
-3053
-3166
-3287
-3236
-2855
-2342
-1801
-1255
-719
-173
378
928
1502
2092
2664
2948
2704
2236
1691
1146
624
99
-454
-1026
-1596
-2186
-2770
-3168
-3246
-3171
-3066
-2974
-2896
-2802
-2703
-2621
-2568
-2527
-2514
-2527
-2541
-2556
-2558
-2559
-2544
-2519
-2504
-2514
-2533
-2537
-2526
-2507
-2485
-2457
-2429
-2449
-2484
-2500
-2500
-2496
-2464
-2431
-2418
-2421
-2437
-2466
-2477
-2463
-2427
-2380
-2346
-2364
-2378
-2385
-2394
-2392
-2362
-2321
-2306
-2309
-2301
-2297
-2302
-2310
-2284
-2256
-2232
-2217
-2223
-2221
-2202
-2186
-2144
-2107
-2084
-2090
-2109
-2115
-2116
-2102
-2069
-2026
-2001
-2004
-2031
-2054
-2062
-2041
-2015
-1972
-1932
-1913
-1912
-1917
-1921
-1921
-1878
-1836
-1798
-1766
-1737
-1721
-1700
-1667
-1615
-1571
-1528
-1509
-1510
-1516
-1493
-1473
-1450
-1420
-1396
-1418
-1459
-1488
-1507
-1504
-1484
-1470
-1481
-1517
-1574
-1640
-1690
-1725
-1742
-1752
-1771
-1851
-1945
-2031
-2119
-2202
-2259
-2293
-2317
-2343
-2383
-2437
-2479
-2502
-2516
-2522
-2522
-2539
-2547
-2564
-2568
-2564
-2544
-2516
-2504
-2517
-2542
-2564
-2591
-2584
-2547
-2516
-2502
-2501
-2519
-2556
-2577
-2581
-2560
-2534
-2503
-2514
-2537
-2556
-2569
-2585
-2570
-2549
-2523
-2527
-2537
-2548
-2569
-2569
-2559
-2540
-2522
-2536
-2556
-2555
-2559
-2555
-2553
-2528
-2507
-2518
-2547
-2569
-2578
-2574
-2553
-2531
-2505
-2507
-2532
-2574
-2590
-2569
-2561
-2524
-2497
-2515
-2539
-2546
-2569
-2584
-2568
-2546
-2521
-2516
-2536
-2560
-2569
-2572
-2557
-2545
-2532
-2526
-2549
-2568
-2569
-2566
-2556
-2534
-2512
-2521
-2539
-2575
-2582
-2572
-2548
-2514
-2492
-2506
-2537
-2569
-2585
-2583
-2569
-2539
-2510
-2520
-2544
-2551
-2569
-2578
-2573
-2540
-2521
-2528
-2528
-2552
-2567
-2572
-2569
-2551
-2541
-2549
-2549
-2566
-2565
-2545
-2489
-2422
-2364
-2336
-2319
-2299
-2265
-2229
-2182
-2117
-2074
-2050
-2042
-2045
-2043
-2037
-2009
-1979
-1957
-1962
-1972
-1987
-1999
-2043
-2057
-2057
-2059
-2079
-2107
-2156
-2204
-2247
-2265
-2301
-2344
-2381
-2440
-2493
-2534
-2544
-2551
-2532
-2514
-2522
-2544
-2576
-2577
-2580
-2562
-2528
-2501
-2506
-2525
-2559
-2581
-2587
-2569
-2541
-2509
-2510
-2514
-2549
-2573
-2581
-2584
-2544
-2516
-2520
-2524
-2549
-2566
-2565
-2561
-2558
-2540
-2520
-2536
-2562
-2571
-2617
-2698
-2780
-2855
-2972
-3108
-3242
-3334
-3154
-2694
-2141
-1571
-1020
-474
49
576
1108
1678
2268
2809
2923
2566
2061
1488
909
356
-161
-678
-1235
-1805
-2400
-2952
-3242
-3248
-3177
-3071
-2967
-2864
-2779
-2674
-2607
-2574
-2542
-2514
-2524
-2552
-2569
-2597
-2591
-2575
-2541
-2508
-2505
-2506
-2541
-2547
-2548
-2528
-2496
-2448
-2442
-2462
-2484
-2496
-2520
-2521
-2492
-2449
-2446
-2429
-2422
-2446
-2452
-2436
-2415
-2388
-2375
-2389
-2388
-2380
-2386
-2362
-2326
-2302
-2301
-2311
-2310
-2320
-2327
-2290
-2262
-2219
-2197
-2196
-2211
-2221
-2205
-2176
-2134
-2084
-2060
-2079
-2094
-2101
-2124
-2114
-2077
-2038
-2022
-2008
-2010
-2036
-2042
-2019
-1997
-1959
-1927
-1930
-1939
-1921
-1901
-1877
-1833
-1782
-1753
-1735
-1717
-1707
-1679
-1624
-1564
-1529
-1499
-1494
-1506
-1514
-1503
-1482
-1444
-1417
-1411
-1436
-1461
-1490
-1528
-1532
-1519
-1517
-1534
-1567
-1626
-1665
-1722
-1764
-1789
-1836
-1889
-1966
-2061
-2140
-2212
-2276
-2319
-2332
-2373
-2412
-2454
-2494
-2527
-2538
-2522
-2509
-2506
-2524
-2554
-2577
-2574
-2573
-2559
-2516
-2507
-2517
-2540
-2568
-2583
-2581
-2564
-2524
-2523
-2521
-2541
-2552
-2569
-2553
-2548
-2532
-2523
-2526
-2554
-2559
-2569
-2564
-2537
-2523
-2534
-2539
-2568
-2576
-2577
-2563
-2535
-2519
-2511
-2527
-2565
-2582
-2591
-2581
-2561
-2524
-2506
-2516
-2539
-2556
-2589
-2594
-2564
-2535
-2524
-2524
-2529
-2554
-2567
-2567
-2572
-2546
-2524
-2537
-2567
-2567
-2576
-2581
-2552
-2521
-2537
-2550
-2560
-2580
-2582
-2550
-2534
-2526
-2514
-2521
-2558
-2587
-2593
-2579
-2560
-2519
-2511
-2521
-2546
-2567
-2591
-2598
-2576
-2543
-2525
-2527
-2544
-2549
-2573
-2568
-2567
-2554
-2535
-2539
-2559
-2571
-2574
-2571
-2552
-2527
-2516
-2526
-2568
-2583
-2587
-2575
-2552
-2520
-2516
-2533
-2551
-2567
-2551
-2508
-2437
-2372
-2311
-2277
-2253
-2219
-2219
-2197
-2147
-2092
-2042
-2020
-2008
-2004
-2023
-2013
-2001
-1972
-1966
-1976
-2004
-2014
-2031
-2056
-2065
-2059
-2072
-2129
-2170
-2219
-2276
-2306
-2322
-2332
-2361
-2416
-2496
-2547
-2584
-2589
-2569
-2520
-2502
-2518
-2542
-2562
-2588
-2594
-2577
-2547
-2522
-2519
-2536
-2546
-2566
-2565
-2563
-2541
-2524
-2527
-2549
-2558
-2574
-2576
-2569
-2534
-2528
-2537
-2553
-2569
-2586
-2580
-2560
-2539
-2527
-2522
-2549
-2594
-2663
-2744
-2837
-2897
-2982
-3102
-3245
-3313
-3072
-2612
-2079
-1487
-917
-362
183
734
1263
1810
2359
2829
2826
2452
1938
1415
838
269
-279
-817
-1365
-1939
-2524
-3051
-3281
-3270
-3173
-3048
-2924
-2809
-2732
-2660
-2629
-2605
-2576
-2531
-2509
-2521
-2540
-2557
-2584
-2597
-2577
-2545
-2511
-2496
-2504
-2512
-2521
-2512
-2511
-2489
-2468
-2465
-2482
-2482
-2490
-2504
-2484
-2452
-2443
-2439
-2449
-2461
-2468
-2446
-2425
-2388
-2358
-2351
-2374
-2399
-2411
-2397
-2371
-2320
-2282
-2279
-2296
-2304
-2321
-2334
-2306
-2259
-2214
-2183
-2182
-2189
-2178
-2174
-2167
-2123
-2099
-2090
-2100
-2116
-2106
-2100
-2071
-2044
-2022
-2017
-2018
-2034
-2044
-2028
-2000
-1962
-1921
-1900
-1909
-1924
-1919
-1897
-1866
-1799
-1732
-1700
-1682
-1662
-1659
-1652
-1619
-1562
-1527
-1502
-1481
-1488
-1494
-1477
-1479
-1468
-1446
-1444
-1476
-1494
-1505
-1530
-1536
-1539
-1561
-1602
-1650
-1700
-1749
-1777
-1816
-1861
-1912
-1978
-2080
-2167
-2257
-2324
-2366
-2368
-2376
-2396
-2440
-2494
-2545
-2578
-2578
-2562
-2546
-2523
-2522
-2549
-2571
-2586
-2599
-2564
-2539
-2539
-2552
-2564
-2582
-2587
-2578
-2546
-2531
-2541
-2556
-2572
-2604
-2592
-2568
-2560
-2532
-2527
-2556
-2586
-2604
-2599
-2584
-2543
-2512
-2525
-2544
-2555
-2588
-2600
-2591
-2561
-2540
-2535
-2542
-2559
-2580
-2591
-2593
-2569
-2554
-2537
-2547
-2571
-2582
-2586
-2581
-2557
-2547
-2546
-2546
-2564
-2589
-2597
-2574
-2543
-2538
-2536
-2564
-2584
-2604
-2611
-2597
-2557
-2519
-2509
-2525
-2557
-2592
-2621
-2611
-2578
-2542
-2530
-2549
-2556
-2571
-2582
-2587
-2566
-2548
-2549
-2572
-2577
-2589
-2591
-2587
-2559
-2538
-2546
-2556
-2571
-2586
-2592
-2575
-2557
-2533
-2521
-2552
-2584
-2592
-2603
-2599
-2553
-2527
-2524
-2547
-2566
-2587
-2599
-2599
-2574
-2556
-2528
-2540
-2534
-2538
-2512
-2463
-2399
-2331
-2272
-2249
-2225
-2201
-2173
-2161
-2111
-2058
-2029
-2032
-2042
-2050
-2036
-2024
-2001
-1967
-1969
-1999
-2037
-2070
-2104
-2119
-2107
-2106
-2119
-2161
-2211
-2279
-2347
-2387
-2393
-2421
-2454
-2494
-2542
-2570
-2589
-2601
-2587
-2554
-2537
-2543
-2564
-2577
-2583
-2589
-2574
-2550
-2535
-2552
-2574
-2597
-2595
-2575
-2554
-2532
-2524
-2555
-2571
-2594
-2602
-2591
-2569
-2539
-2532
-2549
-2566
-2602
-2610
-2590
-2571
-2546
-2532
-2539
-2597
-2686
-2792
-2902
-2997
-3089
-3182
-3302
-3219
-2842
-2336
-1795
-1227
-658
-89
456
999
1531
2084
2636
2874
2631
2201
1658
1078
501
-66
-626
-1146
-1681
-2240
-2821
-3200
-3304
-3269
-3167
-3027
-2904
-2766
-2652
-2606
-2592
-2586
-2596
-2584
-2547
-2538
-2556
-2569
-2584
-2592
-2576
-2556
-2533
-2516
-2520
-2529
-2543
-2522
-2509
-2494
-2474
-2452
-2479
-2516
-2524
-2526
-2520
-2490
-2444
-2411
-2429
-2450
-2471
-2486
-2467
-2431
-2390
-2360
-2361
-2369
-2375
-2385
-2379
-2361
-2330
-2313
-2309
-2312
-2316
-2308
-2300
-2258
-2217
-2201
-2201
-2204
-2199
-2172
-2151
-2116
-2089
-2073
-2100
-2121
-2126
-2112
-2116
-2074
-2022
-2002
-2018
-2036
-2056
-2054
-2033
-1995
-1947
-1911
-1902
-1896
-1896
-1877
-1857
-1818
-1750
-1699
-1677
-1651
-1626
-1614
-1595
-1565
-1535
-1501
-1496
-1491
-1487
-1490
-1486
-1476
-1456
-1445
-1482
-1513
-1541
-1561
-1582
-1581
-1579
-1606
-1652
-1699
-1779
-1847
-1902
-1932
-1973
-2025
-2096
-2186
-2288
-2366
-2404
-2426
-2424
-2432
-2474
-2512
-2553
-2584
-2587
-2567
-2555
-2550
-2566
-2583
-2605
-2594
-2579
-2557
-2546
-2529
-2557
-2586
-2610
-2614
-2614
-2571
-2539
-2527
-2544
-2573
-2599
-2602
-2604
-2581
-2544
-2533
-2541
-2561
-2584
-2600
-2606
-2586
-2566
-2553
-2559
-2568
-2577
-2596
-2594
-2574
-2550
-2541
-2554
-2577
-2591
-2589
-2584
-2564
-2546
-2531
-2562
-2586
-2609
-2609
-2604
-2571
-2542
-2532
-2542
-2571
-2589
-2607
-2609
-2587
-2558
-2540
-2543
-2561
-2584
-2596
-2606
-2597
-2566
-2542
-2550
-2558
-2583
-2589
-2599
-2579
-2561
-2554
-2562
-2576
-2596
-2588
-2584
-2566
-2541
-2542
-2562
-2586
-2602
-2616
-2610
-2579
-2539
-2534
-2554
-2574
-2598
-2609
-2611
-2585
-2568
-2550
-2546
-2571
-2593
-2596
-2606
-2583
-2567
-2556
-2562
-2566
-2576
-2591
-2594
-2569
-2561
-2568
-2569
-2542
-2517
-2471
-2423
-2362
-2293
-2240
-2220
-2206
-2204
-2190
-2162
-2098
-2036
-2003
-2001
-2008
-2039
-2051
-2042
-2032
-2011
-1976
-1989
-2026
-2069
-2112
-2148
-2169
-2162
-2171
-2212
-2253
-2310
-2370
-2412
-2437
-2469
-2502
-2539
-2564
-2596
-2605
-2582
-2564
-2539
-2531
-2563
-2579
-2604
-2616
-2605
-2561
-2534
-2531
-2543
-2577
-2605
-2609
-2610
-2597
-2562
-2534
-2540
-2563
-2589
-2601
-2611
-2591
-2561
-2547
-2556
-2558
-2574
-2591
-2594
-2579
-2563
-2559
-2592
-2667
-2777
-2864
-2971
-3074
-3156
-3265
-3262
-2946
-2476
-1954
-1404
-829
-229
347
888
1435
1966
2498
2844
2683
2280
1802
1264
685
111
-465
-1039
-1587
-2132
-2669
-3125
-3268
-3238
-3167
-3074
-2954
-2824
-2701
-2620
-2596
-2602
-2596
-2585
-2577
-2550
-2541
-2559
-2591
-2610
-2605
-2594
-2559
-2524
-2494
-2501
-2514
-2542
-2548
-2551
-2522
-2485
-2461
-2464
-2507
-2525
-2521
-2527
-2497
-2464
-2463
-2447
-2436
-2449
-2456
-2452
-2420
-2396
-2378
-2372
-2382
-2397
-2379
-2362
-2339
-2310
-2296
-2302
-2310
-2326
-2324
-2304
-2250
-2189
-2163
-2166
-2171
-2184
-2196
-2187
-2157
-2101
-2076
-2072
-2094
-2098
-2104
-2109
-2087
-2052
-2028
-2021
-2011
-2019
-2025
-2002
-1967
-1929
-1903
-1917
-1904
-1894
-1864
-1821
-1779
-1722
-1671
-1662
-1646
-1628
-1614
-1606
-1556
-1499
-1469
-1449
-1457
-1484
-1516
-1514
-1501
-1481
-1458
-1466
-1492
-1529
-1575
-1625
-1641
-1650
-1662
-1699
-1731
-1792
-1871
-1932
-1996
-2054
-2107
-2180
-2267
-2347
-2388
-2421
-2437
-2439
-2443
-2494
-2539
-2584
-2614
-2611
-2580
-2543
-2529
-2541
-2562
-2596
-2607
-2604
-2583
-2552
-2526
-2534
-2562
-2589
-2606
-2609
-2607
-2575
-2555
-2546
-2562
-2581
-2589
-2596
-2577
-2565
-2539
-2557
-2589
-2594
-2591
-2592
-2576
-2552
-2543
-2566
-2587
-2610
-2618
-2611
-2574
-2541
-2534
-2538
-2565
-2601
-2629
-2620
-2597
-2564
-2536
-2525
-2560
-2584
-2597
-2606
-2595
-2572
-2564
-2558
-2565
-2579
-2607
-2592
-2579
-2571
-2552
-2558
-2579
-2596
-2588
-2587
-2581
-2552
-2539
-2553
-2581
-2607
-2617
-2604
-2578
-2559
-2549
-2548
-2566
-2597
-2607
-2606
-2587
-2559
-2539
-2537
-2557
-2585
-2595
-2611
-2606
-2571
-2554
-2553
-2558
-2573
-2596
-2601
-2584
-2575
-2559
-2567
-2584
-2596
-2599
-2597
-2578
-2558
-2534
-2551
-2577
-2606
-2621
-2606
-2572
-2551
-2531
-2507
-2502
-2488
-2466
-2406
-2344
-2270
-2205
-2176
-2173
-2166
-2157
-2143
-2111
-2056
-2006
-2004
-2014
-2021
-2031
-2038
-2030
-2025
-2013
-2028
-2069
-2113
-2139
-2157
-2167
-2174
-2182
-2241
-2307
-2366
-2416
-2466
-2466
-2483
-2510
-2531
-2557
-2592
-2610
-2617
-2601
-2549
-2524
-2544
-2572
-2593
-2606
-2609
-2601
-2569
-2556
-2561
-2561
-2582
-2596
-2597
-2580
-2568
-2553
-2561
-2584
-2592
-2590
-2593
-2589
-2564
-2543
-2552
-2583
-2606
-2614
-2611
-2587
-2551
-2546
-2619
-2747
-2867
-2991
-3101
-3197
-3282
-3274
-2989
-2537
-2027
-1492
-959
-397
198
776
1342
1915
2448
2848
2729
2316
1824
1307
750
181
-376
-941
-1504
-2054
-2596
-3071
-3250
-3264
-3202
-3109
-2999
-2871
-2726
-2606
-2563
-2585
-2610
-2625
-2628
-2607
-2558
-2534
-2542
-2564
-2584
-2600
-2605
-2576
-2529
-2507
-2500
-2506
-2517
-2528
-2534
-2522
-2504
-2497
-2501
-2505
-2510
-2516
-2511
-2481
-2445
-2432
-2445
-2454
-2463
-2466
-2455
-2420
-2370
-2349
-2345
-2378
-2391
-2396
-2385
-2351
-2316
-2285
-2275
-2290
-2305
-2309
-2294
-2260
-2221
-2186
-2166
-2145
-2162
-2173
-2166
-2146
-2114
-2093
-2097
-2094
-2096
-2091
-2092
-2062
-2026
-2012
-2021
-2028
-2022
-2023
-2010
-1971
-1913
-1879
-1869
-1876
-1882
-1862
-1825
-1780
-1709
-1644
-1606
-1592
-1586
-1590
-1587
-1564
-1520
-1476
-1449
-1444
-1472
-1508
-1519
-1514
-1506
-1489
-1497
-1527
-1561
-1602
-1645
-1667
-1667
-1696
-1740
-1796
-1860
-1937
-2016
-2062
-2104
-2167
-2247
-2327
-2402
-2444
-2464
-2481
-2473
-2476
-2506
-2553
-2591
-2602
-2609
-2596
-2575
-2568
-2569
-2574
-2582
-2597
-2594
-2584
-2583
-2559
-2564
-2581
-2601
-2612
-2609
-2582
-2553
-2546
-2570
-2594
-2607
-2613
-2604
-2581
-2554
-2537
-2546
-2576
-2611
-2623
-2619
-2602
-2561
-2541
-2547
-2566
-2590
-2602
-2619
-2610
-2572
-2556
-2552
-2566
-2587
-2591
-2598
-2597
-2582
-2566
-2576
-2594
-2599
-2601
-2606
-2581
-2558
-2557
-2576
-2594
-2604
-2611
-2602
-2578
-2559
-2544
-2552
-2584
-2616
-2631
-2620
-2591
-2559
-2532
-2539
-2555
-2584
-2611
-2630
-2617
-2581
-2549
-2545
-2569
-2586
-2591
-2591
-2594
-2572
-2564
-2565
-2591
-2603
-2615
-2612
-2585
-2558
-2543
-2570
-2592
-2607
-2616
-2611
-2578
-2553
-2542
-2545
-2587
-2610
-2624
-2631
-2602
-2566
-2544
-2551
-2567
-2597
-2617
-2629
-2609
-2581
-2532
-2497
-2467
-2441
-2411
-2360
-2317
-2255
-2214
-2187
-2172
-2154
-2127
-2106
-2076
-2022
-2002
-2017
-2043
-2056
-2064
-2056
-2029
-2009
-2001
-2031
-2087
-2135
-2186
-2216
-2224
-2226
-2225
-2270
-2344
-2394
-2464
-2523
-2544
-2558
-2556
-2551
-2563
-2591
-2605
-2597
-2590
-2572
-2562
-2569
-2591
-2599
-2598
-2593
-2581
-2569
-2551
-2566
-2593
-2619
-2626
-2611
-2585
-2554
-2539
-2556
-2584
-2612
-2627
-2617
-2606
-2562
-2551
-2554
-2577
-2597
-2631
-2637
-2621
-2604
-2636
-2719
-2840
-2976
-3092
-3197
-3303
-3315
-3023
-2550
-2040
-1489
-931
-388
168
752
1324
1883
2442
2843
2725
2313
1823
1310
776
241
-344
-941
-1526
-2088
-2646
-3072
-3214
-3219
-3174
-3092
-3011
-2916
-2782
-2653
-2586
-2559
-2564
-2584
-2607
-2610
-2604
-2586
-2572
-2576
-2584
-2587
-2577
-2564
-2552
-2524
-2508
-2511
-2517
-2524
-2546
-2539
-2524
-2497
-2472
-2477
-2511
-2531
-2528
-2519
-2496
-2456
-2418
-2415
-2431
-2456
-2466
-2452
-2433
-2406
-2371
-2350
-2352
-2364
-2380
-2362
-2357
-2322
-2302
-2289
-2298
-2291
-2275
-2267
-2245
-2187
-2173
-2169
-2171
-2179
-2185
-2156
-2135
-2095
-2069
-2067
-2089
-2116
-2118
-2112
-2087
-2041
-2011
-2011
-2017
-2008
-2022
-2014
-1979
-1936
-1902
-1865
-1845
-1829
-1811
-1788
-1746
-1691
-1643
-1608
-1599
-1589
-1580
-1565
-1542
-1508
-1481
-1466
-1484
-1504
-1530
-1526
-1523
-1501
-1489
-1497
-1554
-1614
-1666
-1700
-1715
-1711
-1716
-1764
-1845
-1939
-2026
-2105
-2156
-2196
-2252
-2296
-2353
-2423
-2474
-2500
-2523
-2519
-2532
-2559
-2589
-2592
-2607
-2604
-2596
-2579
-2571
-2584
-2592
-2607
-2634
-2613
-2586
-2567
-2559
-2566
-2587
-2609
-2627
-2622
-2609
-2570
-2543
-2554
-2573
-2601
-2634
-2633
-2607
-2586
-2565
-2553
-2573
-2605
-2619
-2619
-2607
-2581
-2566
-2557
-2586
-2604
-2601
-2601
-2595
-2570
-2562
-2574
-2593
-2609
-2616
-2619
-2584
-2565
-2558
-2563
-2589
-2616
-2635
-2626
-2610
-2569
-2549
-2559
-2584
-2599
-2624
-2624
-2609
-2576
-2552
-2538
-2567
-2588
-2612
-2609
-2606
-2595
-2572
-2582
-2597
-2599
-2607
-2603
-2596
-2577
-2561
-2586
-2603
-2612
-2628
-2624
-2594
-2567
-2547
-2553
-2587
-2621
-2632
-2614
-2601
-2575
-2541
-2536
-2576
-2604
-2625
-2633
-2616
-2577
-2555
-2555
-2564
-2587
-2606
-2620
-2620
-2583
-2549
-2566
-2594
-2599
-2614
-2612
-2591
-2544
-2496
-2460
-2442
-2409
-2382
-2326
-2271
-2202
-2156
-2145
-2149
-2142
-2126
-2111
-2066
-2012
-1996
-1999
-2021
-2036
-2062
-2073
-2057
-2044
-2055
-2063
-2099
-2143
-2188
-2220
-2246
-2267
-2296
-2329
-2387
-2451
-2507
-2544
-2559
-2556
-2569
-2580
-2602
-2615
-2623
-2606
-2591
-2567
-2550
-2557
-2592
-2622
-2627
-2628
-2606
-2569
-2545
-2551
-2575
-2604
-2624
-2627
-2619
-2587
-2569
-2559
-2574
-2586
-2602
-2621
-2611
-2585
-2559
-2574
-2582
-2579
-2597
-2614
-2602
-2638
-2734
-2852
-2978
-3083
-3207
-3311
-3327
-3034
-2546
-2017
-1499
-970
-432
116
689
1284
1884
2444
2865
2775
2323
1795
1269
753
212
-339
-896
-1474
-2069
-2639
-3119
-3272
-3245
-3182
-3099
-2992
-2887
-2789
-2674
-2587
-2571
-2587
-2596
-2608
-2622
-2614
-2590
-2559
-2554
-2557
-2578
-2598
-2589
-2591
-2569
-2522
-2482
-2488
-2511
-2549
-2566
-2567
-2549
-2515
-2487
-2473
-2487
-2507
-2507
-2514
-2506
-2466
-2439
-2438
-2447
-2442
-2442
-2435
-2416
-2390
-2368
-2362
-2373
-2392
-2384
-2365
-2338
-2314
-2281
-2277
-2296
-2304
-2295
-2267
-2222
-2177
-2146
-2149
-2154
-2161
-2165
-2177
-2145
-2098
-2078
-2061
-2069
-2085
-2091
-2084
-2081
-2051
-2014
-2001
-1998
-1997
-1988
-1983
-1953
-1904
-1879
-1848
-1819
-1810
-1788
-1749
-1703
-1637
-1587
-1571
-1581
-1588
-1580
-1572
-1534
-1475
-1436
-1456
-1479
-1506
-1534
-1561
-1534
-1514
-1512
-1536
-1577
-1630
-1677
-1717
-1747
-1757
-1787
-1845
-1923
-2002
-2086
-2161
-2211
-2256
-2317
-2376
-2421
-2472
-2507
-2527
-2529
-2532
-2539
-2552
-2594
-2611
-2625
-2634
-2604
-2558
-2552
-2574
-2588
-2607
-2627
-2634
-2619
-2596
-2562
-2567
-2587
-2601
-2611
-2626
-2623
-2583
-2569
-2578
-2589
-2592
-2602
-2606
-2597
-2577
-2583
-2586
-2604
-2622
-2624
-2614
-2597
-2570
-2557
-2564
-2604
-2623
-2631
-2628
-2615
-2580
-2554
-2565
-2591
-2611
-2633
-2636
-2621
-2584
-2563
-2571
-2587
-2599
-2608
-2621
-2622
-2590
-2562
-2574
-2579
-2586
-2607
-2611
-2595
-2578
-2566
-2568
-2589
-2611
-2627
-2621
-2609
-2571
-2552
-2574
-2601
-2623
-2625
-2638
-2617
-2569
-2550
-2560
-2582
-2610
-2633
-2628
-2609
-2594
-2572
-2566
-2581
-2597
-2611
-2617
-2620
-2601
-2567
-2568
-2586
-2604
-2601
-2610
-2602
-2573
-2566
-2585
-2597
-2611
-2617
-2612
-2581
-2560
-2561
-2571
-2599
-2625
-2639
-2625
-2572
-2506
-2444
-2401
-2383
-2374
-2361
-2326
-2260
-2204
-2147
-2113
-2113
-2109
-2107
-2091
-2064
-2029
-2014
-2014
-2022
-2045
-2049
-2066
-2074
-2071
-2088
-2117
-2145
-2197
-2234
-2247
-2275
-2297
-2311
-2372
-2452
-2514
-2565
-2605
-2591
-2564
-2552
-2563
-2582
-2606
-2624
-2641
-2617
-2572
-2559
-2550
-2570
-2604
-2617
-2642
-2620
-2585
-2567
-2566
-2585
-2607
-2614
-2610
-2593
-2574
-2566
-2584
-2599
-2617
-2628
-2625
-2596
-2576
-2554
-2566
-2596
-2621
-2629
-2646
-2687
-2737
-2820
-2936
-3066
-3204
-3334
-3371
-3079
-2582
-2026
-1472
-919
-402
129
670
1233
1822
2404
2855
2785
2374
1857
1286
733
199
-343
-900
-1479
-2067
-2640
-3119
-3289
-3246
-3157
-3077
-3003
-2919
-2808
-2706
-2642
-2589
-2557
-2562
-2582
-2619
-2631
-2641
-2626
-2576
-2557
-2558
-2569
-2576
-2575
-2575
-2566
-2529
-2504
-2518
-2521
-2518
-2538
-2552
-2528
-2514
-2502
-2488
-2508
-2522
-2501
-2484
-2489
-2446
-2417
-2426
-2442
-2448
-2446
-2440
-2424
-2362
-2339
-2351
-2354
-2380
-2396
-2389
-2367
-2319
-2274
-2263
-2256
-2257
-2261
-2260
-2232
-2181
-2152
-2149
-2156
-2166
-2161
-2162
-2133
-2106
-2087
-2090
-2093
-2088
-2082
-2079
-2067
-2027
-2002
-1994
-1993
-2004
-1998
-1985
-1942
-1882
-1824
-1809
-1796
-1794
-1767
-1747
-1709
-1656
-1597
-1561
-1552
-1563
-1566
-1567
-1537
-1488
-1469
-1474
-1496
-1507
-1528
-1561
-1547
-1539
-1556
-1582
-1634
-1691
-1721
-1751
-1766
-1785
-1829
-1916
-2000
-2088
-2182
-2257
-2284
-2319
-2357
-2400
-2439
-2501
-2556
-2579
-2588
-2569
-2542
-2546
-2573
-2599
-2616
-2627
-2622
-2601
-2567
-2574
-2596
-2605
-2611
-2601
-2597
-2579
-2576
-2583
-2591
-2617
-2622
-2612
-2591
-2569
-2560
-2580
-2600
-2621
-2625
-2631
-2607
-2567
-2561
-2571
-2586
-2604
-2635
-2647
-2624
-2588
-2558
-2568
-2587
-2610
-2623
-2634
-2626
-2592
-2565
-2582
-2581
-2587
-2611
-2629
-2606
-2597
-2581
-2582
-2596
-2620
-2632
-2626
-2605
-2574
-2566
-2581
-2599
-2627
-2634
-2630
-2609
-2579
-2556
-2563
-2586
-2616
-2641
-2634
-2624
-2597
-2562
-2547
-2577
-2602
-2613
-2626
-2622
-2600
-2581
-2581
-2586
-2606
-2611
-2614
-2593
-2577
-2579
-2586
-2605
-2622
-2605
-2604
-2601
-2576
-2554
-2566
-2606
-2633
-2631
-2627
-2601
-2575
-2552
-2557
-2574
-2609
-2637
-2649
-2629
-2586
-2551
-2559
-2587
-2612
-2616
-2609
-2559
-2488
-2426
-2384
-2352
-2318
-2291
-2262
-2222
-2176
-2144
-2118
-2111
-2098
-2074
-2068
-2054
-2022
-2006
-2020
-2044
-2062
-2062
-2090
-2092
-2084
-2092
-2123
-2166
-2225
-2275
-2326
-2334
-2349
-2362
-2404
-2474
-2533
-2601
-2641
-2624
-2597
-2580
-2573
-2585
-2599
-2609
-2611
-2604
-2601
