
-9311
-7628
-6336
-5346
-4571
-3999
-3571
-3324
-3133
-2960
-2804
-2697
-2624
-2575
-2553
-2521
-2449
-2359
-2312
-2272
-2263
-2279
-2322
-2342
-2311
-2249
-2201
-2182
-2174
-2185
-2199
-2212
-2177
-2109
-2031
-1947
-1884
-1858
-1844
-1874
-1844
-1793
-1746
-1702
-1670
-1656
-1687
-1703
-1681
-1644
-1628
-1617
-1616
-1662
-1709
-1734
-1739
-1727
-1712
-1729
-1781
-1845
-1914
-1991
-2021
-2024
-2015
-2020
-2051
-2102
-2182
-2219
-2209
-2202
-2168
-2129
-2097
-2119
-2169
-2180
-2187
-2172
-2149
-2151
-2148
-2141
-2153
-2179
-2177
-2153
-2132
-2122
-2117
-2158
-2199
-2198
-2173
-2132
-2089
-2070
-2096
-2145
-2196
-2222
-2211
-2162
-2111
-2069
-2077
-2122
-2221
-2316
-2416
-2485
-2543
-2602
-2638
-2686
-2483
-2106
-1646
-1141
-632
-136
340
799
1253
1713
2208
2618
2589
2252
1814
1328
831
389
-29
-426
-840
-1279
-1752
-2186
-2398
-2459
-2419
-2344
-2247
-2173
-2122
-2108
-2152
-2174
-2187
-2181
-2138
-2096
-2064
-2087
-2109
-2146
-2147
-2148
-2132
-2114
-2124
-2134
-2154
-2179
-2182
-2125
-2098
-2078
-2082
-2111
-2139
-2147
-2124
-2081
-2029
-1997
-1996
-2027
-2089
-2131
-2109
-2055
-2003
-1979
-1944
-1959
-2001
-2036
-2026
-1979
-1946
-1899
-1864
-1876
-1902
-1908
-1906
-1881
-1849
-1849
-1835
-1843
-1865
-1878
-1852
-1817
-1777
-1772
-1789
-1791
-1803
-1811
-1790
-1737
-1688
-1661
-1647
-1666
-1709
-1741
-1716
-1633
-1592
-1547
-1514
-1529
-1569
-1598
-1590
-1549
-1481
-1408
-1377
-1364
-1364
-1361
-1371
-1329
-1286
-1260
-1235
-1237
-1249
-1250
-1232
-1202
-1197
-1212
-1217
-1277
-1331
-1347
-1338
-1328
-1316
-1330
-1364
-1424
-1505
-1583
-1613
-1612
-1617
-1651
-1689
-1772
-1886
-1994
-2037
-2037
-2015
-2011
-2002
-2022
-2087
-2136
-2139
-2137
-2121
-2096
-2091
-2099
-2121
-2137
-2112
-2081
-2063
-2070
-2086
-2104
-2153
-2167
-2149
-2091
-2052
-2037
-2046
-2089
-2139
-2188
-2175
-2122
-2065
-2033
-2024
-2070
-2124
-2165
-2164
-2139
-2107
-2071
-2051
-2071
-2114
-2127
-2127
-2113
-2097
-2099
-2094
-2101
-2112
-2127
-2131
-2109
-2091
-2067
-2070
-2103
-2139
-2153
-2129
-2099
-2052
-2042
-2055
-2081
-2156
-2182
-2152
-2107
-2069
-2039
-2034
-2074
-2129
-2155
-2154
-2121
-2098
-2063
-2046
-2064
-2094
-2123
-2131
-2112
-2103
-2097
-2092
-2088
-2106
-2128
-2112
-2091
-2071
-2071
-2080
-2114
-2137
-2142
-2130
-2103
-2056
-2036
-2037
-2077
-2126
-2177
-2162
-2107
-2055
-2042
-2026
-2056
-2118
-2147
-2149
-2130
-2090
-2053
-2046
-2057
-2091
-2125
-2131
-2129
-2106
-2082
-2060
-2052
-2051
-2039
-1985
-1901
-1859
-1812
-1770
-1772
-1792
-1761
-1712
-1645
-1570
-1528
-1541
-1567
-1611
-1635
-1621
-1578
-1545
-1512
-1499
-1540
-1612
-1692
-1734
-1712
-1704
-1679
-1709
-1772
-1852
-1916
-1945
-1984
-1996
-2012
-2037
-2059
-2092
-2114
-2106
-2072
-2052
-2059
-2079
-2094
-2126
-2154
-2130
-2087
-2042
-2043
-2054
-2089
-2137
-2179
-2163
-2102
-2070
-2049
-2025
-2049
-2107
-2169
-2158
-2122
-2097
-2066
-2036
-2046
-2084
-2119
-2136
-2107
-2082
-2073
-2074
-2133
-2228
-2326
-2406
-2469
-2534
-2612
-2662
-2449
-2066
-1615
-1123
-592
-68
418
885
1317
1743
2190
2589
2594
2305
1899
1448
970
469
-17
-457
-886
-1297
-1702
-2093
-2260
-2312
-2343
-2316
-2251
-2191
-2146
-2088
-2074
-2109
-2120
-2093
-2082
-2069
-2057
-2049
-2092
-2132
-2145
-2114
-2082
-2054
-2046
-2062
-2099
-2156
-2199
-2179
-2121
-2072
-2032
-2002
-2027
-2067
-2106
-2113
-2085
-2034
-1986
-1969
-1979
-2004
-2049
-2039
-2006
-1972
-1960
-1937
-1928
-1954
-1965
-1939
-1899
-1872
-1847
-1830
-1861
-1892
-1901
-1874
-1814
-1780
-1764
-1764
-1779
-1829
-1887
-1866
-1797
-1743
-1692
-1671
-1709
-1766
-1783
-1769
-1729
-1687
-1638
-1595
-1593
-1625
-1647
-1633
-1613
-1591
-1550
-1509
-1516
-1532
-1536
-1489
-1439
-1406
-1364
-1351
-1351
-1372
-1362
-1316
-1243
-1192
-1163
-1153
-1186
-1226
-1249
-1257
-1217
-1172
-1153
-1167
-1204
-1276
-1355
-1384
-1375
-1364
-1358
-1357
-1404
-1466
-1547
-1607
-1656
-1705
-1722
-1777
-1849
-1924
-1965
-1987
-1987
-1977
-1990
-2006
-2042
-2100
-2129
-2120
-2077
-2028
-2025
-2056
-2077
-2120
-2158
-2149
-2102
-2054
-2024
-2011
-2044
-2102
-2132
-2135
-2111
-2074
-2039
-2024
-2031
-2072
-2094
-2114
-2088
-2099
-2072
-2051
-2069
-2085
-2107
-2091
-2071
-2070
-2053
-2049
-2059
-2113
-2137
-2114
-2074
-2035
-2019
-2013
-2059
-2116
-2157
-2147
-2095
-2061
-2037
-2015
-2037
-2094
-2139
-2144
-2116
-2070
-2039
-2029
-2046
-2056
-2107
-2118
-2098
-2082
-2057
-2043
-2054
-2102
-2128
-2096
-2071
-2049
-2036
-2052
-2082
-2131
-2146
-2119
-2089
-2038
-2020
-2027
-2059
-2118
-2157
-2141
-2106
-2056
-2007
-2005
-2030
-2097
-2139
-2134
-2124
-2078
-2039
-2032
-2028
-2061
-2101
-2124
-2107
-2079
-2054
-2051
-2062
-2082
-2111
-2101
-2069
-2047
-2051
-2062
-2087
-2119
-2119
-2102
-2077
-2034
-2017
-2007
-2012
-2039
-2031
-1959
-1875
-1797
-1723
-1697
-1694
-1714
-1718
-1689
-1638
-1572
-1526
-1502
-1499
-1532
-1586
-1601
-1571
-1552
-1539
-1535
-1569
-1617
-1674
-1684
-1681
-1696
-1719
-1749
-1817
-1904
-1962
-1991
-1973
-1977
-2014
-2042
-2069
-2117
-2153
-2127
-2084
-2057
-2034
-2011
-2044
-2090
-2131
-2139
-2122
-2084
-2017
-1998
-2031
-2058
-2107
-2116
-2094
-2061
-2052
-2056
-2071
-2089
-2116
-2103
-2062
-2056
-2055
-2050
-2089
-2106
-2127
-2112
-2072
-2041
-2039
-2087
-2193
-2332
-2457
-2531
-2569
-2604
-2605
-2359
-1972
-1559
-1145
-667
-151
362
871
1370
1817
2264
2601
2568
2258
1873
1447
996
545
67
-424
-852
-1274
-1702
-2089
-2267
-2336
-2341
-2319
-2271
-2178
-2080
-2032
-2028
-2054
-2111
-2146
-2148
-2089
-2032
-2012
-2012
-2036
-2091
-2132
-2152
-2130
-2086
-2054
-2041
-2059
-2088
-2122
-2124
-2108
-2064
-2042
-2029
-2037
-2054
-2062
-2045
-2021
-1995
-1968
-1966
-1996
-2049
-2064
-2031
-1976
-1926
-1902
-1896
-1917
-1965
-1996
-1962
-1904
-1839
-1801
-1777
-1789
-1844
-1892
-1890
-1869
-1812
-1774
-1744
-1755
-1787
-1822
-1824
-1786
-1745
-1741
-1714
-1704
-1719
-1723
-1694
-1669
-1630
-1609
-1609
-1627
-1641
-1659
-1622
-1552
-1504
-1478
-1475
-1492
-1536
-1546
-1502
-1430
-1361
-1317
-1266
-1264
-1306
-1341
-1322
-1277
-1212
-1162
-1127
-1127
-1153
-1193
-1226
-1226
-1222
-1227
-1236
-1242
-1287
-1349
-1354
-1334
-1344
-1366
-1417
-1463
-1532
-1622
-1654
-1647
-1667
-1726
-1794
-1879
-1976
-2040
-2046
-2021
-1989
-1971
-1965
-2012
-2076
-2135
-2127
-2110
-2073
-2037
-2024
-2037
-2070
-2111
-2119
-2092
-2077
-2055
-2044
-2067
-2093
-2096
-2084
-2064
-2042
-2045
-2059
-2098
-2121
-2113
-2106
-2062
-2011
-1997
-2009
-2061
-2126
-2161
-2134
-2089
-2037
-2008
-1998
-2016
-2073
-2132
-2118
-2102
-2069
-2041
-2013
-2024
-2061
-2106
-2112
-2099
-2072
-2044
-2059
-2059
-2082
-2100
-2082
-2081
-2051
-2041
-2049
-2076
-2107
-2113
-2107
-2056
-2026
-2019
-2020
-2052
-2097
-2145
-2132
-2073
-2038
-2003
-1998
-2042
-2084
-2122
-2133
-2096
-2062
-2031
-2003
-2017
-2066
-2117
-2126
-2100
-2078
-2054
-2036
-2052
-2085
-2102
-2095
-2061
-2039
-2033
-2043
-2064
-2091
-2119
-2101
-2064
-2025
-2017
-2026
-2066
-2111
-2144
-2127
-2099
-2053
-2013
-2004
-2022
-2061
-2122
-2128
-2107
-2059
-2002
-1955
-1924
-1922
-1927
-1884
-1836
-1783
-1723
-1691
-1675
-1672
-1661
-1611
-1564
-1519
-1503
-1512
-1544
-1583
-1592
-1572
-1529
-1491
-1493
-1532
-1581
-1674
-1734
-1753
-1717
-1695
-1698
-1742
-1813
-1906
-1992
-2033
-2055
-2048
-2022
-1986
-1992
-2043
-2092
-2103
-2094
-2067
-2049
-2044
-2044
-2069
-2087
-2072
-2058
-2041
-2037
-2044
-2061
-2092
-2117
-2110
-2065
-2021
-1994
-2006
-2044
-2094
-2141
-2137
-2082
-2029
-1996
-1996
-2019
-2089
-2120
-2131
-2097
-2077
-2076
-2136
-2251
-2357
-2477
-2576
-2642
-2671
-2431
-1995
-1533
-1096
-633
-137
368
859
1340
1801
2246
2605
2564
2263
1898
1494
1054
607
114
-401
-903
-1321
-1726
-2094
-2241
-2257
-2239
-2259
-2268
-2242
-2161
-2087
-2041
-2016
-2017
-2056
-2082
-2097
-2069
-2064
-2045
-2047
-2046
-2080
-2108
-2089
-2071
-2061
-2067
-2084
-2101
-2128
-2127
-2107
-2054
-2008
-1999
-1989
-2023
-2071
-2094
-2072
-2014
-1967
-1939
-1921
-1951
-2003
-2044
-2041
-2020
-1958
-1910
-1876
-1883
-1893
-1927
-1929
-1896
-1859
-1824
-1793
-1786
-1819
-1845
-1834
-1792
-1769
-1765
-1751
-1775
-1814
-1814
-1798
-1744
-1694
-1671
-1676
-1699
-1746
-1769
-1747
-1665
-1608
-1563
-1529
-1538
-1599
-1637
-1622
-1569
-1527
-1481
-1452
-1434
-1454
-1468
-1448
-1399
-1366
-1330
-1281
-1269
-1280
-1286
-1254
-1214
-1169
-1141
-1151
-1183
-1219
-1232
-1229
-1201
-1171
-1184
-1206
-1267
-1347
-1408
-1406
-1397
-1377
-1354
-1387
-1457
-1562
-1665
-1729
-1762
-1772
-1801
-1849
-1890
-1941
-1990
-2014
-2026
-2014
-2018
-2026
-2042
-2082
-2080
-2081
-2058
-2044
-2036
-2044
-2061
-2097
-2114
-2102
-2048
-2016
-1991
-1997
-2049
-2105
-2147
-2134
-2082
-2029
-1993
-1989
-2029
-2089
-2108
-2125
-2084
-2057
-2031
-2016
-2024
-2061
-2102
-2096
-2088
-2074
-2064
-2054
-2042
-2081
-2091
-2077
-2079
-2055
-2031
-2050
-2066
-2098
-2132
-2109
-2061
-2016
-1999
-1993
-2035
-2096
-2134
-2126
-2076
-2024
-1997
-1996
-2022
-2070
-2112
-2119
-2097
-2049
-2018
-2009
-2018
-2057
-2091
-2099
-2083
-2072
-2056
-2033
-2042
-2076
-2092
-2077
-2059
-2037
-2037
-2036
-2061
-2109
-2127
-2102
-2051
-2026
-2029
-2016
-2053
-2106
-2132
-2117
-2094
-2038
-1996
-1977
-1994
-2054
-2130
-2126
-2100
-2064
-2037
-2013
-2014
-2040
-2086
-2098
-2094
-2076
-2065
-2037
-2044
-2066
-2087
-2086
-2056
-2001
-1953
-1927
-1929
-1931
-1907
-1842
-1755
-1704
-1651
-1624
-1646
-1672
-1672
-1632
-1574
-1504
-1476
-1471
-1497
-1555
-1596
-1614
-1589
-1552
-1539
-1541
-1585
-1643
-1714
-1744
-1754
-1773
-1799
-1821
-1874
-1950
-1987
-2022
-2040
-2024
-2017
-2024
-2067
-2108
-2119
-2097
-2052
-2017
-2016
-2021
-2045
-2090
-2136
-2116
-2082
-2036
-2002
-1987
-2004
-2081
-2121
-2119
-2092
-2056
-2012
-2009
-2022
-2045
-2080
-2093
-2074
-2059
-2039
-2026
-2036
-2092
-2114
-2071
-2055
-2093
-2139
-2237
-2362
-2477
-2582
-2648
-2649
-2391
-1964
-1517
-1066
-646
-211
286
821
1344
1838
2313
2674
2602
2239
1817
1399
1004
599
163
-307
-798
-1287
-1736
-2133
-2291
-2291
-2256
-2233
-2223
-2198
-2142
-2062
-2039
-2042
-2052
-2069
-2107
-2113
-2089
-2061
-2014
-1992
-2011
-2059
-2109
-2146
-2147
-2119
-2075
-2031
-2007
-2041
-2104
-2127
-2110
-2096
-2039
-1991
-1957
-1981
-2014
-2052
-2056
-2029
-1997
-1974
-1960
-1961
-1979
-1982
-1960
-1932
-1912
-1901
-1895
-1912
-1920
-1939
-1902
-1835
-1774
-1760
-1770
-1804
-1848
-1882
-1857
-1799
-1766
-1729
-1699
-1731
-1769
-1826
-1822
-1769
-1706
-1666
-1640
-1646
-1657
-1696
-1698
-1656
-1618
-1609
-1575
-1553
-1566
-1579
-1560
-1524
-1487
-1474
-1456
-1449
-1469
-1471
-1403
-1337
-1279
-1236
-1229
-1246
-1302
-1322
-1274
-1206
-1147
-1095
-1079
-1119
-1190
-1238
-1264
-1249
-1218
-1217
-1211
-1246
-1306
-1371
-1407
-1418
-1418
-1425
-1453
-1520
-1599
-1693
-1747
-1766
-1807
-1849
-1888
-1946
-1996
-2049
-2040
-2009
-1980
-1984
-2004
-2038
-2087
-2129
-2124
-2087
-2036
-1997
-1988
-2032
-2080
-2120
-2132
-2113
-2064
-2029
-2012
-2018
-2047
-2094
-2110
-2098
-2062
-2045
-2032
-2049
-2064
-2086
-2077
-2057
-2043
-2026
-2027
-2052
-2089
-2113
-2116
-2074
-2027
-2001
-2016
-2055
-2096
-2140
-2127
-2084
-2045
-1994
-1973
-2024
-2085
-2129
-2136
-2106
-2070
-2037
-2028
-2026
-2067
-2084
-2101
-2095
-2073
-2049
-2035
-2037
-2076
-2106
-2081
-2062
-2042
-2012
-2021
-2057
-2099
-2116
-2096
-2058
-2012
-2001
-2009
-2056
-2092
-2122
-2121
-2096
-2039
-1990
-1990
-2016
-2078
-2117
-2125
-2092
-2064
-2031
-2011
-2009
-2051
-2094
-2092
-2075
-2072
-2049
-2051
-2039
-2068
-2087
-2064
-2041
-2040
-2034
-2035
-2050
-2092
-2112
-2087
-2055
-2034
-2010
-2014
-2049
-2106
-2147
-2128
-2064
-1985
-1914
-1862
-1846
-1871
-1884
-1840
-1776
-1716
-1651
-1609
-1589
-1584
-1597
-1596
-1560
-1534
-1524
-1514
-1520
-1542
-1572
-1557
-1529
-1549
-1567
-1601
-1651
-1724
-1768
-1766
-1761
-1764
-1776
-1845
-1914
-2012
-2091
-2094
-2071
-2041
-2012
-1999
-2022
-2076
-2117
-2124
-2102
-2068
-2044
-2027
-2033
-2061
-2078
-2087
-2072
-2057
-2044
-2031
-2044
-2062
-2086
-2081
-2065
-2026
-2019
-2045
-2081
-2120
-2127
-2103
-2061
-2002
-1990
-2018
-2062
-2094
-2129
-2140
-2143
-2172
-2211
-2275
-2396
-2542
-2679
-2726
-2495
-2036
-1535
-1041
-572
-123
316
784
1295
1788
2267
2673
2643
2283
1866
1443
1024
597
148
-309
-797
-1274
-1731
-2125
-2274
-2266
-2233
-2201
-2194
-2206
-2201
-2149
-2092
-2039
-2006
-1986
-2008
-2077
-2109
-2123
-2122
-2069
-2025
-2015
-2036
-2077
-2108
-2120
-2108
-2097
-2070
-2055
-2058
-2084
-2087
-2064
-2044
-2007
-1994
-1999
-2022
-2049
-2042
-2019
-1984
-1958
-1941
-1937
-1955
-2006
-2028
-2005
-1956
-1908
-1857
-1836
-1838
-1876
-1912
-1899
-1875
-1824
-1793
-1770
-1749
-1799
-1832
-1831
-1824
-1794
-1773
-1747
-1740
-1757
-1774
-1751
-1709
-1681
-1668
-1677
-1685
-1685
-1691
-1662
-1616
-1579
-1542
-1531
-1551
-1591
-1619
-1601
-1532
-1482
-1427
-1401
-1399
-1417
-1420
-1411
-1366
-1307
-1252
-1224
-1206
-1209
-1244
-1228
-1192
-1161
-1144
-1148
-1171
-1202
-1232
-1234
-1224
-1219
-1232
-1258
-1312
-1382
-1429
-1434
-1401
-1396
-1409
-1489
-1597
-1699
-1784
-1855
-1862
-1863
-1857
-1874
-1930
-1992
-2051
-2077
-2067
-2037
-2021
-2014
-2021
-2057
-2094
-2106
-2089
-2054
-2037
-2034
-2046
-2062
-2080
-2083
-2049
-2047
-2032
-2030
-2062
-2093
-2107
-2092
-2052
-2022
-1996
-1999
-2049
-2092
-2128
-2119
-2091
-2043
-1997
-1986
-2012
-2064
-2124
-2135
-2117
-2072
-2036
-2011
-2021
-2050
-2091
-2091
-2081
-2064
-2041
-2031
-2044
-2069
-2086
-2071
-2062
-2029
-2022
-2029
-2046
-2094
-2111
-2091
-2056
-1998
-1986
-2001
-2043
-2101
-2149
-2112
-2064
-2029
-2006
-1986
-2002
-2057
-2099
-2121
-2106
-2070
-2027
-2015
-2021
-2044
-2083
-2101
-2079
-2058
-2040
-2026
-2044
-2077
-2091
-2086
-2066
-2032
-2012
-2036
-2074
-2098
-2105
-2092
-2052
-2016
-2004
-2007
-2032
-2090
-2130
-2117
-2086
-2033
-1991
-1993
-2014
-2072
-2114
-2108
-2088
-2057
-2019
-2015
-2019
-2047
-2085
-2067
-2021
-1964
-1906
-1865
-1817
-1821
-1798
-1752
-1701
-1650
-1619
-1603
-1587
-1598
-1595
-1552
-1532
-1486
-1476
-1489
-1531
-1584
-1613
-1622
-1599
-1564
-1559
-1577
-1640
-1717
-1781
-1830
-1859
-1848
-1852
-1864
-1917
-1997
-2071
-2101
-2095
-2058
-2054
-2039
-2047
-2086
-2097
-2086
-2053
-2034
-2013
-2013
-2057
-2114
-2121
-2108
-2052
-2011
-1997
-2000
-2044
-2106
-2130
-2117
-2087
-2036
-1997
-1983
-2014
-2072
-2129
-2125
-2097
-2071
-2032
-2009
-2016
-2062
-2101
-2133
-2193
-2259
-2336
-2408
-2514
-2621
-2676
-2451
-2030
-1542
-1066
-584
-144
296
756
1266
1783
2314
2719
2688
2298
1840
1372
954
557
161
-276
-697
-1170
-1691
-2144
-2342
-2331
-2274
-2218
-2152
-2122
-2127
-2122
-2104
-2071
-2042
-2037
-2029
-2026
-2064
-2087
-2083
-2056
-2032
-2027
-2045
-2076
-2117
-2137
-2129
-2084
-2033
-2025
-2035
-2047
-2090
-2126
-2114
-2047
-1996
-1954
-1924
-1966
-2025
-2059
-2053
-2045
-1991
-1952
-1915
-1921
-1946
-1958
-1962
-1947
-1912
-1882
-1849
-1848
-1866
-1886
-1851
-1814
-1793
-1772
-1779
-1804
-1840
-1861
-1827
-1782
-1739
-1708
-1702
-1738
-1796
-1826
-1782
-1721
-1667
-1627
-1603
-1612
-1655
-1687
-1688
-1659
-1596
-1549
-1509
-1506
-1534
-1546
-1548
-1526
-1483
-1451
-1412
-1391
-1405
-1389
-1350
-1283
-1246
-1231
-1212
-1242
-1245
-1242
-1215
-1159
-1112
-1106
-1124
-1172
-1247
-1306
-1306
-1266
-1239
-1222
-1219
-1275
-1376
-1457
-1487
-1484
-1486
-1504
-1534
-1607
-1689
-1790
-1869
-1906
-1924
-1932
-1937
-1962
-2012
-2034
-2036
-2040
-2024
-2014
-2028
-2069
-2094
-2106
-2091
-2062
-2015
-1996
-2012
-2042
-2086
-2120
-2129
-2084
-2040
-2011
-2001
-2012
-2059
-2116
-2124
-2098
-2061
-2024
-2012
-2003
-2039
-2102
-2082
-2071
-2062
-2038
-2032
-2038
-2062
-2074
-2060
-2051
-2036
-2026
-2022
-2064
-2102
-2124
-2097
-2042
-2016
-2002
-2001
-2030
-2059
-2116
-2109
-2069
-2034
-1997
-1982
-2024
-2060
-2099
-2125
-2103
-2058
-2021
-2008
-2016
-2037
-2066
-2077
-2066
-2057
-2049
-2022
-2037
-2070
-2089
-2067
-2054
-2042
-2019
-2021
-2055
-2106
-2124
-2113
-2056
-2006
-1981
-1987
-2021
-2082
-2131
-2126
-2087
-2033
-1996
-1996
-2019
-2062
-2101
-2117
-2102
-2057
-2023
-2003
-2022
-2051
-2080
-2084
-2073
-2062
-2040
-2026
-2024
-2067
-2086
-2078
-2040
-2033
-2023
-2031
-2070
-2095
-2086
-2037
-1956
-1881
-1814
-1785
-1791
-1786
-1782
-1756
-1702
-1628
-1552
-1505
-1517
-1564
-1600
-1593
-1568
-1529
-1494
-1483
-1501
-1519
-1564
-1597
-1602
-1627
-1642
-1655
-1676
-1729
-1787
-1820
-1826
-1841
-1881
-1924
-2004
-2066
-2112
-2097
-2052
-2012
-1996
-2002
-2037
-2082
-2119
-2129
-2080
-2019
-1989
-1986
-2008
-2069
-2136
-2127
-2098
-2063
-2032
-2000
-2000
-2031
-2087
-2090
-2079
-2055
-2036
-2039
-2044
-2085
-2101
-2086
-2051
-2034
-2032
-2028
-2049
-2086
-2145
-2212
-2271
-2317
-2364
-2449
-2569
-2675
-2509
-2098
-1611
-1091
-575
-82
369
798
1234
1709
2216
2666
2694
2381
1941
1478
994
544
119
-302
-749
-1177
-1657
-2088
-2284
-2306
-2267
-2214
-2161
-2144
-2124
-2119
-2108
-2082
-2052
-2012
-1986
-1989
-2029
-2092
-2126
-2122
-2087
-2046
-2020
-1999
-2022
-2084
-2122
-2142
-2119
-2066
-2021
-2001
-2011
-2023
-2055
-2057
-2039
-2011
-1990
-1987
-1990
-1996
-2009
-2012
-1977
-1942
-1924
-1922
-1943
-1974
-1995
-1971
-1889
-1831
-1811
-1820
-1838
-1884
-1911
-1888
-1831
-1781
-1746
-1729
-1735
-1781
-1836
-1858
-1819
-1759
-1714
-1674
-1696
-1727
-1751
-1749
-1716
-1691
-1668
-1621
-1615
-1642
-1644
-1620
-1575
-1551
-1538
-1526
-1527
-1533
-1557
-1521
-1458
-1403
-1363
-1341
-1345
-1369
-1397
-1359
-1287
-1242
-1190
-1159
-1156
-1191
-1226
-1211
-1195
-1168
-1147
-1134
-1164
-1204
-1247
-1274
-1299
-1296
-1311
-1312
-1331
-1391
-1432
-1446
-1454
-1493
-1549
-1621
-1712
-1804
-1868
-1909
-1921
-1896
-1890
-1905
-1964
-2044
-2106
-2108
-2077
-2023
-2000
-1993
-2004
-2057
-2109
-2115
-2092
-2058
-2020
-1997
-2002
-2041
-2082
-2087
-2074
-2060
-2044
-2014
-2017
-2062
-2084
-2066
-2053
-2026
-2013
-2012
-2045
-2101
-2117
-2101
-2046
-1989
-1993
-2007
-2047
-2093
-2127
-2131
-2087
-2048
-2008
-1993
-2011
-2045
-2111
-2124
-2105
-2070
-2031
-2007
-2006
-2032
-2082
-2085
-2067
-2046
-2022
-2022
-2052
-2079
-2086
-2062
-2051
-2027
-2005
-2014
-2065
-2100
-2126
-2105
-2054
-1998
-1967
-1986
-2029
-2084
-2117
-2107
-2080
-2034
-2009
-1982
-2019
-2083
-2102
-2114
-2087
-2050
-2010
-1983
-1986
-2021
-2060
-2080
-2066
-2034
-2025
-2024
-2029
-2079
-2090
-2070
-2058
-2040
-2017
-2035
-2057
-2097
-2120
-2096
-2064
-2012
-1990
-1989
-2032
-2076
-2129
-2120
-2069
-2027
-1999
-1992
-1990
-2019
-2051
-2012
-1963
-1893
-1818
-1740
-1707
-1704
-1716
-1708
-1678
-1622
-1569
-1529
-1527
-1541
-1552
-1534
-1516
-1497
-1476
-1491
-1527
-1562
-1617
-1621
-1594
-1598
-1601
-1624
-1687
-1775
-1858
-1909
-1899
-1904
-1899
-1932
-1987
-2057
-2106
-2112
-2096
-2057
-2017
-2007
-2020
-2049
-2067
-2069
-2066
-2058
-2040
-2026
-2011
-2037
-2087
-2069
-2039
-2028
-2017
-2009
-2051
-2087
-2099
-2101
-2054
-2009
-1993
-1976
-2008
-2076
-2119
-2104
-2081
-2041
-1994
-1973
-1993
-2097
-2230
-2315
-2382
-2440
-2503
-2562
-2606
-2440
-2072
-1610
-1116
-619
-112
369
808
1263
1716
2218
2672
2714
2385
1946
1473
987
528
101
-311
-697
-1127
-1607
-2049
-2287
-2362
-2349
-2268
-2169
-2108
-2041
-2026
-2055
-2102
-2113
-2087
-2047
-2021
-1996
-2009
-2039
-2069
-2086
-2082
-2061
-2051
-2036
-2055
-2090
-2112
-2094
-2067
-2034
-2016
-2022
-2030
-2066
-2081
-2058
-2012
-1957
-1942
-1926
-1961
-2026
-2071
-2042
-1992
-1942
-1892
-1876
-1889
-1939
-1982
-1964
-1938
-1891
-1835
-1801
-1800
-1807
-1839
-1834
-1810
-1797
-1792
-1761
-1762
-1793
-1810
-1779
-1742
-1729
-1714
-1703
-1712
-1757
-1772
-1731
-1661
-1609
-1587
-1579
-1601
-1649
-1676
-1647
-1599
-1532
-1487
-1454
-1469
-1496
-1542
-1522
-1486
-1426
-1357
-1315
-1294
-1297
-1321
-1312
-1276
-1234
-1203
-1183
-1173
-1178
-1190
-1171
-1152
-1152
-1142
-1171
-1217
-1257
-1295
-1302
-1289
-1262
-1259
-1299
-1366
-1439
-1519
-1549
-1551
-1567
-1592
-1626
-1709
-1826
-1921
-1969
-1972
-1956
-1961
-1949
-1966
-2018
-2058
-2079
-2079
-2049
-2032
-2037
-2031
-2048
-2068
-2061
-2032
-2017
-2019
-2035
-2054
-2092
-2102
-2101
-2057
-2004
-1990
-2007
-2039
-2084
-2119
-2114
-2092
-2042
-1994
-1969
-2005
-2063
-2097
-2104
-2099
-2063
-2036
-2013
-2004
-2038
-2069
-2077
-2080
-2052
-2039
-2029
-2044
-2071
-2068
-2066
-2041
-2017
-2022
-2024
-2056
-2086
-2101
-2092
-2041
-2000
-1986
-2000
-2031
-2076
-2126
-2127
-2065
-2015
-1977
-1965
-1999
-2051
-2102
-2121
-2101
-2067
-2037
-2002
-2004
-2044
-2069
-2090
-2067
-2039
-2038
-2039
-2037
-2052
-2081
-2054
-2042
-2026
-2006
-2008
-2049
-2064
-2096
-2098
-2066
-2013
-1974
-1974
-2021
-2100
-2136
-2122
-2072
-2027
-1995
-1987
-2012
-2058
-2101
-2105
-2091
-2048
-2032
-2012
-1992
-2025
-2072
-2080
-2051
-2042
-2041
-2026
-2014
-2023
-2007
-1944
-1877
-1800
-1761
-1731
-1741
-1757
-1733
-1691
-1621
-1559
-1497
-1456
-1479
-1551
-1604
-1609
-1564
-1507
-1450
-1440
-1490
-1566
-1625
-1664
-1689
-1669
-1649
-1655
-1707
-1772
-1867
-1904
-1922
-1943
-1978
-1986
-2020
-2062
-2079
-2066
-2039
-2024
-2023
-2025
-2051
-2105
-2113
-2094
-2043
-1996
-1978
-1989
-2035
-2078
-2120
-2125
-2081
-2030
-1982
-1976
-2019
-2055
-2090
-2104
-2085
-2058
-2016
-1995
-2012
-2042
-2072
-2080
-2059
-2051
-2034
-2022
-2081
-2186
-2291
-2376
-2439
-2482
-2565
-2629
-2436
-2084
-1665
-1171
-632
-92
397
862
1282
1715
2144
2579
2654
2384
1983
1546
1084
601
107
-354
-784
-1199
-1627
-2030
-2224
-2272
-2289
-2271
-2230
-2172
-2110
-2061
-2038
-2066
-2088
-2079
-2050
-2020
-2007
-2017
-2042
-2080
-2101
-2095
-2055
-2009
-1991
-2004
-2037
-2099
-2163
-2156
-2085
-2030
-1994
-1962
-1987
-2035
-2058
-2062
-2037
-2015
-1957
-1932
-1946
-1962
-1991
-1991
-1980
-1959
-1941
-1936
-1909
-1934
-1964
-1915
-1873
-1849
-1816
-1801
-1820
-1848
-1882
-1854
-1801
-1751
-1714
-1721
-1746
-1812
-1839
-1837
-1783
-1726
-1682
-1652
-1666
-1709
-1748
-1742
-1701
-1668
-1619
-1569
-1564
-1596
-1614
-1620
-1593
-1539
-1504
-1498
-1504
-1527
-1511
-1456
-1409
-1362
-1339
-1317
-1311
-1334
-1315
-1294
-1232
-1172
-1141
-1139
-1155
-1188
-1232
-1225
-1196
-1172
-1133
-1133
-1171
-1244
-1307
-1335
-1332
-1329
-1332
-1339
-1369
-1426
-1495
-1552
-1613
-1632
-1666
-1736
-1819
-1896
-1944
-1941
-1933
-1943
-1947
-1972
-2011
-2059
-2102
-2092
-2051
-2003
-1984
-1986
-2014
-2076
-2113
-2107
-2093
-2049
-1993
-1971
-1999
-2057
-2099
-2102
-2084
-2042
-2008
-1987
-2008
-2055
-2081
-2087
-2068
-2054
-2049
-2042
-2024
-2046
-2084
-2084
-2046
-2022
-2016
-2016
-2044
-2089
-2114
-2102
-2050
-1998
-1990
-1988
-2013
-2078
-2117
-2118
-2076
-2022
-1996
-1976
-1991
-2059
-2102
-2113
-2101
-2055
-2028
-2020
-2014
-2050
-2079
-2089
-2064
-2034
-2041
-2022
-2048
-2065
-2085
-2064
-2040
-2014
-2008
-2017
-2051
-2097
-2107
-2086
-2057
-2014
-1976
-1970
-2014
-2073
-2118
-2123
-2086
-2033
-1993
-1984
-1989
-2040
-2094
-2096
-2081
-2062
-2022
-2009
-2014
-2053
-2081
-2086
-2067
-2057
-2042
-2034
-2057
-2061
-2062
-2070
-2038
-2014
-2013
-2023
-2049
-2085
-2131
-2106
-2054
-2014
-1989
-1964
-1979
-1999
-1991
-1968
-1889
-1789
-1729
-1656
-1647
-1682
-1689
-1680
-1640
-1571
-1522
-1501
-1494
-1507
-1534
-1554
-1553
-1526
-1509
-1516
-1528
-1586
-1641
-1659
-1649
-1667
-1689
-1740
-1805
-1881
-1950
-1951
-1948
-1956
-1955
-1992
-2027
-2062
-2109
-2126
-2072
-2026
-1995
-1978
-2004
-2047
-2102
-2114
-2097
-2087
-2052
-2013
-2012
-2030
-2071
-2096
-2066
-2057
-2039
-2031
-2042
-2070
-2079
-2067
-2038
-2009
-2022
-2023
-2042
-2094
-2121
-2109
-2055
-2011
-1998
-2049
-2149
-2276
-2419
-2502
-2551
-2591
-2607
-2385
-2007
-1593
-1190
-707
-176
334
832
1307
1775
2204
2608
2646
2348
1944
1520
1066
603
131
-346
-766
-1176
-1615
-2024
-2236
-2290
-2302
-2282
-2241
-2162
-2077
-2004
-1994
-2022
-2073
-2117
-2126
-2071
-2022
-1994
-1971
-1999
-2050
-2098
-2106
-2110
-2087
-2051
-2031
-2039
-2074
-2090
-2083
-2074
-2051
-2037
-2010
-1999
-2024
-2048
-2027
-1992
-1957
-1945
-1951
-1981
-2019
-2028
-2009
-1962
-1912
-1881
-1863
-1882
-1932
-1961
-1946
-1896
-1840
-1804
-1757
-1759
-1813
-1842
-1857
-1841
-1799
-1755
-1739
-1741
-1764
-1799
-1781
-1745
-1722
-1685
-1686
-1696
-1703
-1712
-1700
-1650
-1600
-1584
-1578
-1608
-1639
-1642
-1599
-1546
-1487
-1447
-1444
-1464
-1502
-1524
-1495
-1429
-1354
-1289
-1249
-1247
-1255
-1286
-1295
-1266
-1212
-1154
-1119
-1122
-1139
-1167
-1184
-1188
-1192
-1186
-1196
-1224
-1266
-1317
-1331
-1315
-1313
-1337
-1374
-1431
-1516
-1584
-1624
-1634
-1659
-1702
-1757
-1839
-1937
-2009
-2044
-2015
-1973
-1966
-1987
-2003
-2044
-2087
-2104
-2096
-2073
-2022
-2019
-2024
-2040
-2058
-2072
-2058
-2028
-2022
-2022
-2037
-2056
-2091
-2082
-2054
-2033
-2019
-2028
-2057
-2094
-2120
-2106
-2061
-2011
-1977
-1968
-2006
-2069
-2127
-2124
-2078
-2044
-2007
-1989
-1994
-2044
-2101
-2116
-2086
-2067
-2032
-2006
-2004
-2042
-2059
-2079
-2063
-2046
-2038
-2035
-2039
-2072
-2084
-2073
-2043
-2024
-2016
-2014
-2041
-2091
-2116
-2093
-2057
-2014
-1988
-1987
-2016
-2062
-2115
-2114
-2083
-2039
-1996
-1977
-2004
-2052
-2104
-2113
-2091
-2067
-2017
-1996
-1997
-2041
-2072
-2074
-2057
-2032
-2027
-2047
-2034
-2059
-2091
-2079
-2049
-2028
-2005
-2016
-2052
-2097
-2112
-2084
-2055
-2019
-1991
-1993
-2027
-2077
-2117
-2109
-2085
-2033
-1983
-1976
-1993
-2042
-2093
-2102
-2092
-2065
-2011
-1956
-1923
-1927
-1913
-1867
-1809
-1771
-1731
-1676
-1668
-1682
-1661
-1617
-1563
-1510
-1494
-1499
-1531
-1569
-1564
-1557
-1537
-1489
-1479
-1508
-1547
-1622
-1710
-1733
-1743
-1697
-1686
-1711
-1771
-1863
-1956
-1991
-2031
-2052
-2021
-1997
-2013
-2060
-2076
-2071
-2073
-2037
-2035
-2024
-2039
-2068
-2092
-2066
-2040
-2015
-2022
-2024
-2045
-2085
-2107
-2075
-2047
-2019
-1997
-1986
-2020
-2074
-2104
-2123
-2086
-2039
-1992
-1985
-1999
-2051
-2104
-2111
-2092
-2076
-2076
-2121
-2205
-2327
-2436
-2545
-2617
-2659
-2454
-2047
-1597
-1144
-685
-196
327
839
1325
1769
2206
2564
2587
2306
1948
1563
1134
682
200
-315
-810
-1261
-1674
-2053
-2215
-2226
-2238
-2243
-2244
-2208
-2151
-2083
-2037
-2014
-2024
-2054
-2064
-2076
-2069
-2046
-2027
-2021
-2025
-2078
-2094
-2092
-2064
-2037
-2034
-2039
-2059
-2122
-2137
-2100
-2042
-1995
-1969
-1959
-1986
-2031
-2067
-2069
-2032
-1976
-1932
-1912
-1912
-1976
-2001
-2004
-1976
-1953
-1909
-1879
-1858
-1880
-1910
-1897
-1864
-1832
-1816
-1797
-1801
-1812
-1833
-1821
-1786
-1762
-1749
-1761
-1761
-1793
-1824
-1805
-1749
-1678
-1639
-1640
-1672
-1712
-1734
-1721
-1672
-1601
-1569
-1533
-1525
-1554
-1583
-1592
-1562
-1531
-1494
-1465
-1435
-1440
-1447
-1426
-1373
-1326
-1283
-1280
-1260
-1272
-1277
-1236
-1179
-1158
-1127
-1112
-1139
-1204
-1237
-1228
-1184
-1166
-1162
-1174
-1224
-1308
-1372
-1396
-1399
-1367
-1351
-1357
-1405
-1524
-1616
-1696
-1730
-1749
-1786
-1825
-1867
-1918
-1961
-1991
-2016
-2004
-2017
-2028
-2024
-2067
-2098
-2073
-2050
-2026
-2004
-2015
-2045
-2091
-2119
-2106
-2054
-1999
-1966
-1979
-2032
-2081
-2117
-2117
-2086
-2031
-1984
-1976
-1984
-2041
-2082
-2112
-2089
-2061
-2025
-1997
-1992
-2045
-2068
-2076
-2056
-2028
-2027
-2036
-2046
-2076
-2092
-2072
-2039
-2009
-1999
-2009
-2039
-2074
-2104
-2101
-2059
-2007
-1981
-1978
-2011
-2063
-2116
-2119
-2082
-2039
-1999
-1982
-1991
-2032
-2092
-2111
-2097
-2057
-2035
-2011
-2010
-2046
-2065
-2077
-2062
-2037
-2032
-2037
-2042
-2064
-2084
-2063
-2037
-2005
-1987
-2016
-2056
-2082
-2102
-2086
-2064
-2012
-1980
-1979
-2013
-2084
-2126
-2118
-2089
-2044
-1997
-1982
-1998
-2044
-2099
-2106
-2083
-2066
-2042
-2013
-2009
-2047
-2068
-2086
-2066
-2042
-2024
-2043
-2042
-2059
-2097
-2068
-2033
-2010
-1954
-1914
-1909
-1917
-1901
-1841
-1781
-1712
-1649
-1619
-1632
-1637
-1646
-1623
-1581
-1514
-1462
-1451
-1461
-1513
-1569
-1579
-1556
-1542
-1524
-1541
-1580
-1640
-1682
-1706
-1737
-1749
-1781
-1820
-1868
-1923
-1984
-2002
-2012
-1999
-1999
-2015
-2040
-2089
-2121
-2117
-2056
-2003
-1982
-1997
-2022
-2080
-2120
-2119
-2084
-2034
-1999
-1993
-1987
-2036
-2092
-2101
-2092
-2068
-2029
-2014
-2011
-2033
-2067
-2077
-2068
-2042
-2004
-2011
-2029
-2070
-2098
-2075
-2045
-2065
-2127
-2220
-2336
-2454
-2562
-2644
-2662
-2445
-2006
-1539
-1099
-677
-246
237
749
1267
1786
2272
2671
2664
2296
1885
1484
1076
652
205
-249
-724
-1192
-1646
-2056
-2262
-2268
-2244
-2230
-2222
-2206
-2132
-2060
-2024
-2006
-1995
-2025
-2099
-2117
-2092
-2057
-2011
-1981
-1982
-2022
-2071
-2121
-2140
-2116
-2076
-2027
-2004
-2014
-2054
-2109
-2106
-2081
-2039
-2003
-1975
-1977
-2002
-2015
-2027
-2007
-1980
-1965
-1959
-1947
-1971
-1984
-1970
-1921
-1882
-1865
-1861
-1884
-1917
-1935
-1907
-1847
-1794
-1742
-1739
-1744
-1799
-1845
-1867
-1833
-1760
-1729
-1721
-1719
-1764
-1796
