
-253
-955
-1615
-2149
-2295
-2249
-2171
-2079
-1986
-1869
-1752
-1604
-1520
-1475
-1441
-1421
-1465
-1509
-1544
-1561
-1582
-1564
-1530
-1494
-1463
-1446
-1469
-1496
-1509
-1541
-1554
-1528
-1495
-1462
-1445
-1421
-1444
-1459
-1481
-1517
-1523
-1486
-1448
-1409
-1384
-1361
-1368
-1376
-1393
-1402
-1407
-1372
-1327
-1268
-1232
-1206
-1210
-1236
-1259
-1258
-1265
-1232
-1181
-1151
-1121
-1093
-1099
-1134
-1161
-1174
-1181
-1141
-1092
-1046
-1021
-976
-964
-979
-1001
-1028
-1016
-979
-943
-904
-869
-844
-846
-855
-844
-845
-845
-784
-738
-670
-601
-569
-544
-541
-529
-527
-491
-429
-365
-312
-267
-229
-260
-267
-275
-282
-281
-268
-257
-245
-239
-230
-258
-319
-364
-419
-474
-498
-515
-531
-545
-572
-664
-777
-884
-998
-1110
-1186
-1240
-1271
-1295
-1337
-1397
-1449
-1514
-1579
-1636
-1641
-1630
-1587
-1562
-1569
-1577
-1626
-1650
-1661
-1682
-1648
-1622
-1596
-1575
-1570
-1590
-1627
-1649
-1682
-1692
-1674
-1636
-1618
-1591
-1577
-1594
-1631
-1666
-1692
-1698
-1676
-1631
-1618
-1596
-1574
-1597
-1642
-1674
-1692
-1690
-1673
-1653
-1632
-1607
-1599
-1616
-1637
-1676
-1697
-1701
-1687
-1655
-1629
-1592
-1599
-1606
-1638
-1679
-1706
-1724
-1689
-1649
-1614
-1587
-1582
-1619
-1626
-1681
-1708
-1710
-1692
-1647
-1616
-1592
-1596
-1624
-1654
-1673
-1697
-1722
-1689
-1657
-1639
-1607
-1602
-1630
-1656
-1692
-1717
-1712
-1689
-1652
-1628
-1604
-1587
-1631
-1657
-1681
-1707
-1721
-1686
-1654
-1637
-1607
-1608
-1630
-1650
-1701
-1731
-1716
-1699
-1665
-1636
-1621
-1611
-1629
-1650
-1681
-1716
-1728
-1702
-1671
-1638
-1621
-1621
-1629
-1626
-1587
-1539
-1479
-1390
-1306
-1212
-1144
-1077
-1057
-1060
-1046
-1020
-966
-912
-852
-816
-792
-771
-787
-831
-843
-877
-906
-912
-907
-919
-933
-947
-1014
-1077
-1152
-1242
-1326
-1376
-1399
-1426
-1480
-1536
-1611
-1676
-1702
-1731
-1742
-1715
-1686
-1639
-1610
-1610
-1647
-1670
-1709
-1728
-1739
-1716
-1691
-1669
-1631
-1617
-1652
-1676
-1704
-1717
-1729
-1701
-1689
-1647
-1623
-1624
-1640
-1682
-1714
-1738
-1735
-1724
-1682
-1649
-1632
-1616
-1665
-1750
-1874
-2004
-2126
-2227
-2302
-2385
-2342
-1944
-1375
-759
-99
561
1229
1926
2619
3311
4018
4738
5233
5019
4428
3746
3029
2363
1704
1029
352
-342
-1069
-1799
-2413
-2611
-2587
-2440
-2276
-2115
-1953
-1812
-1719
-1705
-1726
-1744
-1752
-1729
-1686
-1651
-1651
-1634
-1657
-1684
-1714
-1740
-1741
-1723
-1679
-1646
-1604
-1596
-1619
-1656
-1674
-1687
-1684
-1666
-1622
-1587
-1559
-1544
-1564
-1591
-1609
-1622
-1604
-1577
-1537
-1489
-1442
-1417
-1421
-1451
-1455
-1462
-1458
-1412
-1376
-1347
-1305
-1279
-1291
-1297
-1327
-1340
-1336
-1311
-1271
-1226
-1206
-1174
-1179
-1202
-1208
-1215
-1201
-1167
-1116
-1086
-1048
-1004
-1021
-1041
-1055
-1067
-1065
-1019
-960
-907
-855
-837
-832
-831
-820
-802
-782
-724
-653
-585
-523
-479
-461
-471
-476
-476
-459
-406
-366
-309
-279
-271
-296
-338
-381
-412
-442
-417
-415
-419
-431
-452
-512
-599
-667
-722
-771
-816
-881
-939
-988
-1067
-1187
-1304
-1407
-1496
-1550
-1557
-1553
-1561
-1580
-1599
-1637
-1691
-1726
-1764
-1781
-1732
-1692
-1669
-1652
-1647
-1661
-1697
-1738
-1767
-1770
-1742
-1716
-1670
-1644
-1647
-1666
-1715
-1736
-1762
-1766
-1719
-1688
-1686
-1666
-1654
-1674
-1714
-1747
-1761
-1761
-1746
-1710
-1674
-1643
-1647
-1671
-1722
-1755
-1774
-1774
-1749
-1709
-1676
-1649
-1661
-1689
-1721
-1749
-1772
-1769
-1731
-1712
-1679
-1665
-1659
-1687
-1727
-1749
-1763
-1774
-1752
-1715
-1685
-1654
-1646
-1678
-1715
-1744
-1753
-1754
-1744
-1709
-1680
-1651
-1657
-1676
-1719
-1752
-1774
-1770
-1747
-1714
-1676
-1646
-1647
-1686
-1721
-1755
-1773
-1771
-1742
-1716
-1701
-1670
-1655
-1691
-1730
-1742
-1758
-1772
-1750
-1718
-1682
-1661
-1667
-1682
-1710
-1751
-1776
-1773
-1737
-1714
-1686
-1672
-1664
-1692
-1729
-1751
-1790
-1787
-1735
-1666
-1589
-1509
-1426
-1382
-1337
-1317
-1287
-1231
-1176
-1099
-1032
-967
-915
-908
-899
-918
-955
-938
-911
-879
-854
-837
-829
-869
-949
-1024
-1094
-1131
-1117
-1124
-1141
-1196
-1260
-1347
-1440
-1530
-1619
-1691
-1716
-1695
-1684
-1659
-1651
-1684
-1722
-1756
-1787
-1774
-1744
-1721
-1697
-1674
-1664
-1693
-1724
-1741
-1780
-1781
-1757
-1725
-1702
-1674
-1672
-1690
-1734
-1751
-1768
-1766
-1732
-1713
-1696
-1666
-1672
-1680
-1709
-1761
-1781
-1771
-1764
-1801
-1873
-1942
-2066
-2195
-2342
-2475
-2507
-2121
-1501
-811
-107
600
1301
1948
2588
3229
3868
4553
5105
4978
4457
3813
3120
2391
1651
933
214
-505
-1171
-1817
-2384
-2532
-2489
-2413
-2319
-2213
-2106
-1974
-1829
-1740
-1690
-1666
-1670
-1695
-1747
-1764
-1784
-1794
-1761
-1721
-1688
-1664
-1658
-1677
-1698
-1724
-1756
-1734
-1700
-1676
-1649
-1616
-1616
-1642
-1671
-1692
-1705
-1698
-1654
-1607
-1572
-1559
-1545
-1551
-1567
-1568
-1591
-1571
-1509
-1459
-1417
-1388
-1371
-1391
-1411
-1434
-1446
-1428
-1391
-1337
-1294
-1267
-1266
-1279
-1304
-1314
-1320
-1309
-1277
-1225
-1189
-1143
-1119
-1126
-1152
-1160
-1182
-1167
-1119
-1069
-1031
-984
-981
-988
-1000
-996
-989
-974
-922
-868
-793
-734
-711
-694
-686
-671
-657
-621
-561
-493
-446
-406
-382
-388
-397
-393
-402
-402
-388
-364
-361
-346
-361
-402
-462
-514
-574
-606
-600
-601
-627
-646
-696
-793
-895
-1014
-1133
-1204
-1267
-1326
-1399
-1424
-1455
-1531
-1592
-1657
-1715
-1743
-1747
-1726
-1701
-1691
-1694
-1709
-1749
-1790
-1800
-1793
-1759
-1728
-1694
-1690
-1687
-1710
-1754
-1785
-1792
-1784
-1759
-1717
-1695
-1675
-1679
-1709
-1751
-1778
-1801
-1783
-1752
-1703
-1696
-1693
-1694
-1719
-1739
-1772
-1790
-1776
-1756
-1725
-1696
-1670
-1672
-1709
-1742
-1764
-1793
-1786
-1765
-1734
-1699
-1672
-1690
-1711
-1745
-1763
-1793
-1791
-1749
-1721
-1701
-1671
-1686
-1703
-1730
-1771
-1789
-1779
-1759
-1736
-1716
-1681
-1694
-1720
-1752
-1767
-1808
-1797
-1774
-1738
-1705
-1670
-1679
-1721
-1747
-1772
-1791
-1800
-1769
-1723
-1703
-1684
-1686
-1715
-1742
-1777
-1801
-1793
-1767
-1732
-1698
-1681
-1682
-1717
-1747
-1768
-1802
-1797
-1761
-1729
-1714
-1691
-1691
-1721
-1758
-1773
-1787
-1790
-1754
-1712
-1701
-1687
-1676
-1710
-1717
-1667
-1622
-1571
-1484
-1379
-1282
-1201
-1145
-1134
-1119
-1106
-1092
-1040
-971
-902
-879
-852
-860
-885
-911
-927
-956
-962
-949
-961
-967
-993
-1036
-1092
-1161
-1248
-1329
-1367
-1401
-1436
-1485
-1525
-1602
-1681
-1746
-1771
-1809
-1809
-1776
-1737
-1706
-1681
-1691
-1724
-1760
-1772
-1801
-1792
-1748
-1724
-1717
-1704
-1702
-1727
-1755
-1787
-1799
-1792
-1757
-1734
-1715
-1689
-1690
-1715
-1742
-1771
-1802
-1796
-1749
-1732
-1712
-1687
-1696
-1745
-1837
-1943
-2071
-2178
-2242
-2322
-2414
-2398
-2045
-1482
-860
-209
456
1139
1851
2578
3289
3983
4645
5101
4938
4371
3689
3011
2334
1678
990
308
-387
-1124
-1859
-2473
-2682
-2630
-2487
-2323
-2168
-1997
-1887
-1792
-1778
-1792
-1827
-1805
-1767
-1735
-1712
-1688
-1694
-1718
-1769
-1782
-1800
-1789
-1761
-1713
-1681
-1659
-1665
-1695
-1720
-1741
-1752
-1741
-1706
-1676
-1637
-1597
-1598
-1641
-1666
-1679
-1689
-1659
-1617
-1589
-1531
-1476
-1472
-1496
-1515
-1524
-1523
-1506
-1451
-1406
-1380
-1333
-1332
-1360
-1391
-1399
-1408
-1396
-1355
-1316
-1264
-1241
-1240
-1247
-1257
-1267
-1273
-1253
-1192
-1161
-1108
-1075
-1079
-1092
-1112
-1119
-1117
-1104
-1059
-999
-944
-901
-882
-869
-881
-877
-891
-839
-767
-692
-626
-560
-525
-537
-547
-544
-535
-499
-444
-388
-354
-322
-331
-369
-410
-447
-478
-463
-456
-451
-457
-469
-516
-581
-639
-704
-784
-833
-874
-904
-959
-1027
-1129
-1227
-1361
-1481
-1553
-1588
-1589
-1581
-1581
-1603
-1656
-1716
-1759
-1783
-1811
-1792
-1758
-1729
-1721
-1694
-1697
-1734
-1770
-1797
-1806
-1795
-1766
-1744
-1696
-1686
-1707
-1741
-1767
-1779
-1819
-1809
-1774
-1737
-1706
-1683
-1692
-1732
-1772
-1787
-1803
-1789
-1761
-1737
-1714
-1688
-1699
-1732
-1756
-1793
-1821
-1802
-1786
-1750
-1724
-1694
-1694
-1731
-1763
-1797
-1821
-1811
-1768
-1730
-1704
-1687
-1688
-1735
-1774
-1802
-1821
-1799
-1772
-1750
-1711
-1691
-1719
-1747
-1771
-1791
-1811
-1793
-1766
-1740
-1726
-1697
-1702
-1736
-1772
-1794
-1814
-1794
-1776
-1744
-1718
-1696
-1702
-1734
-1770
-1798
-1819
-1791
-1766
-1734
-1718
-1694
-1713
-1751
-1781
-1796
-1819
-1817
-1768
-1719
-1702
-1685
-1696
-1733
-1767
-1794
-1813
-1788
-1767
-1762
-1716
-1689
-1709
-1739
-1770
-1799
-1823
-1804
-1779
-1694
-1611
-1525
-1461
-1442
-1422
-1370
-1326
-1261
-1182
-1122
-1061
-1002
-984
-954
-953
-962
-977
-967
-937
-896
-870
-845
-876
-941
-998
-1062
-1127
-1141
-1146
-1160
-1171
-1207
-1296
-1397
-1494
-1574
-1651
-1716
-1744
-1732
-1727
-1694
-1706
-1733
-1766
-1796
-1826
-1811
-1770
-1746
-1728
-1701
-1711
-1737
-1776
-1807
-1827
-1802
-1770
-1741
-1722
-1703
-1716
-1739
-1769
-1806
-1814
-1797
-1762
-1729
-1707
-1706
-1715
-1734
-1765
-1789
-1823
-1806
-1800
-1831
-1907
-1975
-2082
-2239
-2376
-2506
-2535
-2151
-1521
-839
-139
553
1214
1872
2542
3215
3856
4529
5056
4933
4409
3783
3101
2379
1646
912
181
-494
-1166
-1834
-2406
-2586
-2562
-2489
-2389
-2263
-2146
-1996
-1835
-1748
-1719
-1701
-1719
-1739
-1771
-1795
-1807
-1791
-1776
-1746
-1724
-1685
-1696
-1727
-1752
-1771
-1782
-1784
-1740
-1697
-1667
-1648
-1655
-1684
-1714
-1730
-1746
-1727
-1664
-1626
-1595
-1564
-1572
-1602
-1620
-1624
-1627
-1596
-1528
-1487
-1444
-1407
-1425
-1447
-1456
-1462
-1474
-1426
-1391
-1358
-1327
-1314
-1314
-1330
-1345
-1354
-1369
-1346
-1292
-1234
-1206
-1157
-1162
-1178
-1187
-1205
-1206
-1179
-1139
-1082
-1034
-998
-1006
-1042
-1038
-1040
-1041
-995
-929
-871
-810
-766
-762
-754
-744
-720
-695
-631
-574
-506
-458
-427
-426
-441
-429
-431
-451
-436
-404
-381
-384
-379
-410
-462
-487
-534
-587
-615
-631
-633
-650
-682
-745
-844
-952
-1058
-1155
-1233
-1294
-1348
-1400
-1439
-1495
-1576
-1629
-1689
-1728
-1744
-1742
-1742
-1728
-1698
-1714
-1749
-1781
-1802
-1816
-1818
-1775
-1737
-1719
-1701
-1706
-1752
-1791
-1812
-1821
-1804
-1765
-1732
-1732
-1711
-1727
-1764
-1782
-1817
-1817
-1817
-1792
-1737
-1709
-1701
-1719
-1766
-1792
-1802
-1810
-1814
-1775
-1724
-1698
-1696
-1724
-1760
-1781
-1812
-1828
-1799
-1758
-1736
-1716
-1696
-1723
-1750
-1784
-1811
-1826
-1799
-1763
-1740
-1719
-1714
-1735
-1750
-1772
-1804
-1820
-1793
-1777
-1740
-1718
-1710
-1731
-1767
-1788
-1807
-1814
-1797
-1766
-1738
-1713
-1708
-1731
-1757
-1786
-1817
-1828
-1817
-1783
-1736
-1716
-1714
-1716
-1753
-1781
-1796
-1819
-1806
-1764
-1734
-1707
-1705
-1717
-1741
-1777
-1812
-1812
-1804
-1770
-1739
-1716
-1706
-1721
-1754
-1786
-1807
-1819
-1811
-1765
-1736
-1712
-1699
-1719
-1749
-1742
-1712
-1652
-1569
-1482
-1382
-1285
-1210
-1175
-1182
-1170
-1152
-1140
-1071
-989
-932
-896
-869
-893
-922
-952
-977
-992
-964
-947
-961
-973
-993
-1078
-1154
-1216
-1274
-1342
-1382
-1412
-1449
-1482
-1546
-1643
-1732
-1789
-1809
-1820
-1804
-1779
-1747
-1722
-1711
-1721
-1756
-1791
-1810
-1835
-1805
-1765
-1741
-1723
-1713
-1729
-1766
-1783
-1807
-1832
-1816
-1774
-1748
-1739
-1719
-1737
-1766
-1802
-1821
-1836
-1816
-1777
-1744
-1704
-1709
-1723
-1789
-1872
-1977
-2101
-2191
-2252
-2336
-2424
-2435
-2096
-1533
-918
-262
396
1096
1826
2539
3264
3965
4615
5070
4876
4314
3659
3010
2370
1696
1015
314
-412
-1149
-1881
-2490
-2703
-2635
-2495
-2334
-2186
-2035
-1921
-1832
-1798
-1815
-1826
-1798
-1777
-1737
-1705
-1711
-1741
-1772
-1801
-1807
-1812
-1793
-1752
-1707
-1689
-1665
-1677
-1733
-1752
-1765
-1771
-1733
-1696
-1668
-1649
-1627
-1636
-1660
-1695
-1706
-1697
-1672
-1623
-1587
-1547
-1519
-1524
-1534
-1554
-1556
-1531
-1507
-1464
-1431
-1387
-1359
-1374
-1392
-1412
-1416
-1414
-1394
-1352
-1319
-1287
-1264
-1264
-1294
-1299
-1297
-1294
-1260
-1205
-1147
-1107
-1087
-1107
-1132
-1139
-1156
-1155
-1109
-1057
-1004
-944
-921
-923
-921
-922
-927
-899
-841
-762
-702
-642
-577
-558
-564
-570
-571
-563
-525
-462
-409
-376
-343
-357
-400
-454
-490
-504
-486
-456
-448
-462
-489
-552
-632
-699
-753
-796
-824
-849
-892
-965
-1047
-1159
-1279
-1402
-1501
-1559
-1574
-1581
-1586
-1598
-1617
-1676
-1756
-1797
-1821
-1829
-1786
-1761
-1741
-1724
-1717
-1742
-1766
-1783
-1817
-1835
-1820
-1772
-1751
-1724
-1716
-1746
-1772
-1792
-1815
-1836
-1809
-1775
-1739
-1717
-1712
-1736
-1769
-1795
-1836
-1832
-1800
-1768
-1734
-1721
-1722
-1742
-1766
-1788
-1812
-1816
-1795
-1766
-1751
-1726
-1704
-1743
-1789
-1817
-1840
-1839
-1809
-1785
-1747
-1721
-1713
-1744
-1764
-1784
-1822
-1839
-1804
-1777
-1751
-1741
-1732
-1741
-1776
-1804
-1822
-1826
-1801
-1761
-1742
-1728
-1720
-1741
-1777
-1787
-1812
-1824
-1796
-1767
-1757
-1721
-1709
-1729
-1778
-1804
-1820
-1844
-1814
-1772
-1744
-1736
-1720
-1728
-1768
-1804
-1831
-1842
-1804
-1786
-1754
-1726
-1726
-1751
-1774
-1795
-1826
-1834
-1807
-1776
-1757
-1731
-1729
-1745
-1771
-1794
-1818
-1826
-1810
-1754
-1696
-1623
-1550
-1506
-1483
-1441
-1401
-1343
-1269
-1194
-1116
-1062
-1011
-993
-997
-988
-988
-980
-955
-936
-910
-894
-877
-906
-970
-1027
-1088
-1131
-1132
-1144
-1162
-1184
-1237
-1336
-1426
-1508
-1618
-1692
-1731
-1751
-1739
-1726
-1711
-1742
-1766
-1801
-1819
-1834
-1792
-1764
-1741
-1727
-1717
-1738
-1783
-1809
-1833
-1842
-1803
-1780
-1742
-1729
-1721
-1744
-1784
-1809
-1829
-1845
-1804
-1774
-1741
-1701
-1712
-1747
-1783
-1802
-1819
-1835
-1817
-1788
-1817
-1891
-2012
-2148
-2291
-2408
-2529
-2545
-2159
-1545
-851
-160
499
1139
1798
2453
3119
3819
4544
5086
4954
4412
3754
3061
2359
1642
916
216
-470
-1148
-1811
-2400
-2596
-2586
-2519
-2412
-2301
-2166
-2005
-1853
-1767
-1741
-1734
-1746
-1793
-1822
-1839
-1859
-1797
-1766
-1740
-1722
-1714
-1732
-1753
-1778
-1799
-1794
-1759
-1725
-1698
-1678
-1665
-1697
-1724
-1742
-1751
-1746
-1721
-1678
-1639
-1620
-1599
-1612
-1641
-1646
-1658
-1639
-1588
-1527
-1474
-1455
-1444
-1445
-1472
-1502
-1507
-1476
-1439
-1392
-1352
-1324
-1321
-1341
-1367
-1378
-1385
-1374
-1343
-1296
-1251
-1216
-1201
-1201
-1214
-1229
-1236
-1215
-1165
-1131
-1114
-1074
-1046
-1054
-1077
-1078
-1086
-1061
-1000
-937
-864
-818
-783
-777
-780
-764
-758
-713
-648
-573
-513
-478
-446
-465
-477
-464
-476
-455
-422
-406
-401
-381
-394
-425
-465
-522
-585
-621
-623
-616
-631
-656
-687
-769
-859
-969
-1074
-1157
-1216
-1272
-1329
-1401
-1466
-1531
-1599
-1659
-1715
-1744
-1747
-1744
-1738
-1716
-1713
-1749
-1786
-1816
-1829
-1819
-1807
-1772
-1741
-1711
-1718
-1753
-1801
-1826
-1838
-1828
-1794
-1764
-1734
-1701
-1708
-1749
-1786
-1812
-1839
-1839
-1810
-1766
-1752
-1731
-1728
-1766
-1803
-1818
-1831
-1835
-1797
-1769
-1746
-1725
-1722
-1749
-1790
-1808
-1836
-1851
-1806
-1768
-1742
-1729
-1731
-1760
-1788
-1809
-1836
-1824
-1806
-1779
-1751
-1726
-1736
-1764
-1796
-1816
-1841
-1848
-1812
-1766
-1748
-1737
-1732
-1758
-1796
-1822
-1839
-1841
-1813
-1774
-1751
-1731
-1729
-1754
-1800
-1826
-1846
-1832
-1803
-1759
-1742
-1724
-1723
-1761
-1797
-1815
-1832
-1839
-1805
-1765
-1744
-1730
-1735
-1757
-1787
-1821
-1834
-1824
-1804
-1776
-1745
-1711
-1717
-1755
-1791
-1806
-1825
-1836
-1800
-1754
-1740
-1730
-1750
-1767
-1785
-1775
-1742
-1658
-1575
-1461
-1365
-1302
-1248
-1226
-1217
-1192
-1179
-1119
-1052
-980
-921
-898
-912
-931
-944
-977
-1014
-1015
-974
-963
-960
-980
-1027
-1109
-1186
-1249
-1309
-1348
-1377
-1416
-1447
-1486
-1571
-1666
-1757
-1807
-1823
-1829
-1808
-1779
-1747
-1715
-1735
-1765
-1784
-1810
-1837
-1822
-1806
-1765
-1744
-1726
-1717
-1747
-1787
-1820
-1854
-1840
-1802
-1776
-1748
-1732
-1753
-1776
-1807
-1817
-1833
-1829
-1797
-1768
-1740
-1718
-1722
-1768
-1825
-1914
-2011
-2099
-2192
-2264
-2337
-2427
-2460
-2136
-1576
-946
-297
384
1093
1791
2480
3194
3882
4562
5059
4892
4319
3659
3011
2367
1701
1021
323
-411
-1156
-1879
-2502
-2698
-2628
-2504
-2362
-2204
-2066
-1956
-1872
-1844
-1844
-1845
-1799
-1763
-1756
-1729
-1736
-1766
-1794
-1814
-1832
-1818
-1782
-1746
-1729
-1699
-1713
-1729
-1762
-1781
-1782
-1768
-1729
-1699
-1666
-1648
-1656
-1674
-1707
-1726
-1744
-1712
-1661
-1621
-1589
-1537
-1527
-1545
-1581
-1581
-1577
-1552
-1494
-1449
-1422
-1386
-1379
-1396
-1430
-1448
-1449
-1441
-1389
-1331
-1298
-1278
-1279
-1297
-1322
-1336
-1340
-1307
-1247
-1198
-1153
-1122
-1116
-1140
-1159
-1168
-1184
-1149
-1106
-1047
-1010
-974
-958
-958
-970
-973
-956
-907
-842
-761
-702
-642
-600
-606
-601
-592
-584
-549
-504
-471
-427
-366
-359
-396
-434
-460
-510
-516
-491
-465
-449
-451
-506
-570
-642
-714
-784
-799
-804
-840
-897
-971
-1082
-1189
-1305
-1413
-1511
-1564
-1572
-1579
-1589
-1607
-1649
-1715
-1767
-1808
-1843
-1827
-1796
-1757
-1742
-1711
-1731
-1781
-1809
-1817
-1840
-1832
-1820
-1783
-1744
-1729
-1746
-1778
-1801
-1827
-1833
-1827
-1807
-1781
-1746
-1733
-1742
-1762
-1791
-1832
-1846
-1829
-1804
-1772
-1748
-1733
-1744
-1774
-1809
-1832
-1860
-1832
-1801
-1784
-1753
-1715
-1728
-1771
-1802
-1831
-1843
-1847
-1802
-1762
-1744
-1733
-1744
-1770
-1800
-1818
-1848
-1823
-1793
-1768
-1744
-1726
-1743
-1764
-1792
-1827
-1837
-1829
-1811
-1771
-1751
-1725
-1734
-1760
-1809
-1826
-1836
-1835
-1789
-1754
-1742
-1731
-1740
-1764
-1798
-1838
-1845
-1826
-1798
-1775
-1745
-1724
-1739
-1772
-1809
-1833
-1848
-1834
-1802
-1767
-1744
-1732
-1731
-1772
-1797
-1831
-1846
-1839
-1800
-1779
-1737
-1719
-1736
-1774
-1814
-1829
-1849
-1837
-1797
-1759
-1693
-1615
-1575
-1544
-1517
-1469
-1408
-1348
-1267
-1189
-1126
-1074
-1046
-1036
-1029
-1017
-1037
-1004
-966
-925
-903
-900
-903
-927
-994
-1056
-1112
-1135
-1144
-1148
-1161
-1188
-1293
-1358
-1444
-1545
-1627
-1659
-1713
-1732
-1731
-1722
-1739
-1769
-1806
-1834
-1861
-1854
-1799
-1772
-1743
-1734
-1749
-1786
-1784
-1825
-1845
-1824
-1802
-1773
-1737
-1716
-1734
-1769
-1801
-1824
-1841
-1832
-1801
-1771
-1747
-1731
-1734
-1777
-1807
-1829
-1841
-1840
-1809
-1774
-1826
-1901
-2031
-2159
-2324
-2446
-2569
-2566
-2186
-1571
-889
-187
474
1113
1755
2394
3056
3776
4519
5101
5005
4457
3779
3056
2326
1608
889
234
-441
-1102
-1784
-2372
-2606
-2607
-2533
-2439
-2336
-2179
-1996
-1844
-1762
-1734
-1738
-1765
-1806
-1829
-1855
-1821
-1796
-1785
-1745
-1724
-1741
-1761
-1798
-1814
-1821
-1804
-1756
-1716
-1698
-1689
-1696
-1720
-1737
-1771
-1749
-1718
-1712
-1676
-1636
-1612
-1619
-1639
-1659
-1658
-1669
-1632
-1576
-1536
-1501
-1451
-1459
-1466
-1491
-1512
-1519
-1482
-1437
-1404
-1351
-1337
-1335
-1347
-1378
-1397
-1401
-1382
-1334
-1285
-1241
-1201
-1217
-1242
-1264
-1249
-1239
-1223
-1185
-1128
-1090
-1058
-1057
-1076
-1093
-1092
-1096
-1056
-972
-935
-877
-839
-823
-824
-810
-789
-772
-719
-647
-582
-521
-482
-473
-490
-486
-515
-488
-444
-409
-395
-390
-389
-424
-476
-511
-541
-579
-591
-598
-614
-635
-656
-717
-803
-894
-992
-1102
-1171
-1216
-1287
-1354
-1416
-1496
-1557
-1628
-1692
-1737
-1741
-1745
-1746
-1737
-1725
-1748
-1791
-1808
-1836
-1852
-1831
-1801
-1775
-1741
-1711
-1741
-1777
-1809
-1822
-1839
-1815
-1801
-1774
-1757
-1735
-1751
-1767
-1796
-1841
-1863
-1819
-1783
-1759
-1746
-1733
-1762
-1784
-1802
-1833
-1857
-1839
-1795
-1762
-1746
-1735
-1749
-1786
-1812
-1837
-1850
-1819
-1790
-1770
-1755
-1730
-1756
-1789
-1826
-1842
-1854
-1848
-1799
-1761
-1739
-1734
-1744
-1779
-1823
-1850
-1846
-1826
-1799
-1771
-1742
-1726
-1747
-1791
-1810
-1842
-1848
-1821
-1795
-1761
-1741
-1734
-1746
-1779
-1804
-1845
-1851
-1838
-1812
-1766
-1776
-1751
-1762
-1798
-1814
-1839
-1866
-1851
-1809
-1771
-1746
-1729
-1741
-1783
-1825
-1843
-1850
-1825
-1782
-1754
-1734
-1727
-1758
-1796
-1826
-1842
-1852
-1831
-1789
-1757
-1753
-1739
-1751
-1781
-1793
-1797
-1758
-1664
-1577
-1491
-1392
-1305
-1275
-1261
-1254
-1224
-1187
-1115
-1044
-978
-918
-894
-917
-951
-985
-1006
-1000
-986
-952
-951
-972
-997
-1057
-1122
-1191
-1261
-1315
-1349
-1376
-1411
-1450
-1513
-1600
-1699
-1779
-1831
-1853
-1825
-1786
-1769
-1753
-1741
-1750
-1799
-1836
-1852
-1862
-1826
-1807
-1777
-1755
-1746
-1756
-1782
-1814
-1825
-1852
-1833
-1796
-1767
-1729
-1723
-1755
-1797
-1829
-1847
-1849
-1831
-1797
-1776
-1757
-1739
-1758
-1799
-1837
-1915
-2006
-2086
-2166
-2259
-2354
-2434
-2484
-2182
-1627
-989
-326
376
1078
1791
2491
3156
3816
4474
5005
4910
4374
3723
3065
2368
1707
1026
311
-431
-1155
-1863
-2492
-2697
-2627
-2501
-2352
-2207
-2100
-1991
-1907
-1879
-1873
-1834
-1797
-1769
-1737
-1749
-1759
-1792
-1826
-1844
-1843
-1826
-1776
-1744
-1719
-1704
-1717
-1751
-1776
-1795
-1797
-1760
-1729
-1694
-1682
-1663
-1671
-1700
-1722
-1729
-1739
-1697
-1661
-1627
-1565
-1546
-1557
-1567
-1574
-1591
-1592
-1544
-1493
-1455
-1424
-1402
-1409
-1434
-1451
-1462
-1467
-1436
-1382
-1345
-1318
-1300
-1314
-1339
-1345
-1364
-1352
-1308
-1232
-1206
-1161
-1127
-1144
-1166
-1181
-1191
-1196
-1158
-1091
-1052
-1004
-969
-981
-996
-989
-967
-969
-912
-826
-745
-695
-660
-639
-642
-646
-643
-616
-550
-502
-457
-411
-377
-399
-426
-443
-480
-509
-496
-468
-462
-454
-474
-537
-601
-672
-724
-794
-806
-807
-847
-894
-982
-1094
-1208
-1330
-1435
-1523
-1551
-1563
-1576
-1592
-1622
-1683
-1752
-1799
-1843
-1863
-1835
-1805
-1756
-1731
-1727
-1766
-1805
-1837
-1856
-1855
-1825
-1784
-1762
-1742
-1736
-1759
-1795
-1832
-1851
-1849
-1824
-1797
-1769
-1744
-1739
-1780
-1807
-1825
-1851
-1864
-1839
-1797
-1767
-1731
-1726
-1761
-1796
-1823
-1840
-1846
-1811
-1788
-1770
-1753
-1753
-1767
-1781
-1831
-1866
-1866
-1832
-1798
-1770
-1754
-1751
-1766
-1792
-1821
-1859
-1856
-1839
-1794
-1767
-1742
-1744
-1770
-1807
-1826
-1850
-1859
-1834
-1807
-1769
-1754
-1727
-1757
-1801
-1821
-1860
-1857
-1821
-1779
-1762
-1751
-1744
-1762
-1801
-1834
-1865
-1853
-1826
-1783
-1764
-1756
-1744
-1768
-1807
-1822
-1841
-1857
-1825
-1784
-1758
-1739
-1734
-1761
-1806
-1832
-1849
-1859
-1832
-1778
-1762
-1756
-1745
-1772
-1799
-1817
-1843
-1847
-1841
-1795
-1761
-1711
-1648
-1600
-1566
-1537
-1501
-1446
-1329
-1246
-1187
-1124
-1087
-1075
-1067
-1061
-1047
-1031
-1008
-962
-934
-911
-904
-930
-980
-1029
-1073
-1109
-1117
-1121
-1130
-1145
-1211
-1293
-1386
-1484
-1553
-1622
-1656
-1696
-1727
-1726
-1727
-1756
-1808
-1831
-1847
-1857
-1827
-1801
-1775
-1742
-1745
-1761
-1809
-1849
-1872
-1855
-1821
-1774
-1745
-1744
-1752
-1772
-1801
-1834
-1853
-1853
-1819
-1782
-1775
-1748
-1733
-1766
-1804
-1827
-1852
-1845
-1814
-1786
-1770
-1810
-1905
-2041
-2180
-2321
-2450
-2561
-2557
-2179
-1591
-901
-219
414
1063
1724
2383
3042
3746
4471
5044
4998
4481
3783
3071
2347
1621
933
246
-423
-1096
-1774
-2384
-2638
-2634
-2554
-2464
-2352
-2167
-1986
-1842
-1756
-1757
-1773
-1809
-1846
-1864
-1851
-1816
-1790
-1764
-1741
-1739
-1756
-1790
-1803
-1813
-1806
-1782
-1747
-1721
-1697
-1705
-1728
-1745
-1775
-1789
-1777
-1749
-1712
-1661
-1634
-1636
-1654
-1682
-1683
-1692
-1681
-1619
-1572
-1549
-1508
-1481
-1492
-1504
-1526
-1525
-1519
-1475
-1432
-1398
-1359
-1335
-1366
-1393
-1406
-1421
-1416
-1370
-1321
-1278
-1252
-1230
-1237
-1257
-1281
-1277
-1255
-1210
-1158
-1108
-1074
-1072
-1085
-1100
-1120
-1120
-1093
-1040
-980
-912
-871
-845
-846
-849
-821
-789
-772
-719
-647
-579
-522
-499
-506
-507
-526
-517
-487
-446
-422
-394
-384
-406
-444
-494
-524
-568
-592
-598
-602
-612
-614
-657
-743
-818
-916
-1016
-1096
-1157
-1195
-1245
-1324
-1414
-1498
-1581
-1651
-1700
-1724
-1737
-1736
-1728
-1729
-1746
-1764
-1801
-1814
-1841
-1857
-1829
-1792
-1759
-1735
-1730
-1774
-1806
-1832
-1851
-1852
-1814
-1791
-1763
-1744
-1749
-1787
-1806
-1841
-1856
-1848
-1811
-1783
-1766
-1740
-1732
-1773
-1801
-1829
-1864
-1844
-1808
-1778
-1756
-1732
-1746
-1781
-1807
-1849
-1854
-1841
-1821
-1779
-1747
-1738
-1736
-1781
-1802
-1831
-1856
-1849
-1816
-1791
-1769
-1751
-1739
-1767
-1811
-1849
-1866
-1869
-1828
-1776
-1755
-1745
-1736
-1764
-1795
-1823
-1854
-1854
-1820
-1787
-1749
-1747
-1745
-1778
-1813
-1848
-1867
-1846
-1816
-1798
-1786
-1754
-1745
-1768
-1807
-1832
-1866
-1849
-1817
-1794
-1771
-1751
-1762
-1787
-1803
-1837
-1872
-1849
-1831
-1787
-1763
-1737
-1747
-1768
-1806
-1839
-1864
-1849
-1824
-1782
-1762
-1739
-1740
-1778
-1809
-1834
-1834
-1766
-1671
-1561
-1465
-1389
-1331
-1292
-1272
-1261
-1243
-1186
-1108
-1044
-985
-934
-923
-946
-976
-1016
-1024
-1016
-986
-953
-957
-976
-1009
-1078
-1146
-1202
-1270
-1315
-1346
-1373
-1416
-1450
-1524
-1620
-1719
-1794
-1838
-1844
-1827
-1793
-1751
-1738
-1749
-1797
-1829
-1845
-1867
-1850
-1824
-1787
-1777
-1741
-1752
-1765
-1805
-1834
-1856
-1850
-1820
-1792
-1755
-1735
-1764
-1784
-1812
-1842
-1859
-1851
-1822
-1787
-1761
-1740
-1769
-1788
-1819
-1850
-1929
-2019
-2079
-2150
-2244
-2341
-2452
-2522
-2221
-1661
-1037
-368
346
1074
1782
2479
3153
3808
4448
4958
4862
4363
3762
3101
2428
1746
1043
313
-442
-1166
-1882
-2490
-2693
-2621
-2500
-2354
-2223
-2124
-2024
-1927
-1884
-1863
-1820
-1781
-1754
-1752
-1756
-1792
-1819
-1842
-1847
-1839
-1814
-1774
-1749
-1710
-1715
-1744
-1778
-1792
-1801
-1799
-1764
-1722
-1698
-1674
-1666
-1707
-1732
-1735
-1751
-1732
-1708
-1664
-1617
-1582
-1571
-1586
-1597
-1605
-1609
-1577
-1541
-1482
-1434
-1404
-1409
-1442
-1466
-1461
-1484
-1461
-1423
-1393
-1339
-1304
-1314
-1359
-1372
-1360
-1365
-1342
-1294
-1236
-1190
-1163
-1151
-1181
-1198
-1213
-1213
-1186
-1134
-1104
-1054
-1010
-997
-1003
-1005
-989
-996
-952
-905
-835
-762
-699
-664
-651
-666
-674
-643
-601
-544
-496
-449
-405
-394
-401
-444
-483
-514
-501
-487
-458
-442
-452
-488
-554
-631
-702
-748
-767
-787
-799
-849
-901
-992
-1117
-1232
-1341
-1447
-1539
-1547
-1550
-1562
-1574
-1621
-1689
-1763
-1810
-1842
-1851
-1824
-1775
-1776
-1758
-1747
-1771
-1814
-1842
-1869
-1849
-1807
-1784
-1772
-1749
-1751
-1789
-1819
-1830
-1859
-1848
-1823
-1783
-1759
-1731
-1754
-1791
-1827
-1853
-1875
-1862
-1816
-1781
-1761
-1732
-1750
-1791
-1808
-1836
-1871
-1848
-1816
-1794
-1765
-1745
-1750
-1777
-1815
-1834
-1857
-1855
-1820
-1786
-1767
-1752
-1766
-1807
-1826
-1853
-1866
-1841
-1814
-1785
-1779
-1760
-1762
-1784
-1826
-1837
-1871
-1851
-1814
-1781
-1759
-1731
-1745
-1797
-1831
-1851
-1876
-1859
-1819
-1804
-1779
-1759
-1769
-1786
-1823
-1859
-1867
-1856
-1825
-1788
-1772
-1744
-1757
-1792
-1824
-1841
-1854
-1864
-1834
-1789
-1774
-1747
-1752
-1772
-1822
-1851
-1860
-1851
-1814
-1766
-1764
-1753
-1767
-1799
-1820
-1843
-1871
-1842
-1816
-1796
-1764
-1692
-1664
-1644
-1587
-1562
-1509
-1431
-1342
-1246
-1186
-1139
-1116
-1102
-1097
-1062
-1059
-1034
-984
-950
-929
-914
-927
-977
-1004
-1036
-1091
-1106
-1128
-1127
-1139
-1168
-1225
-1314
-1399
-1494
-1561
-1622
-1665
-1698
-1729
-1741
-1765
-1809
-1828
-1846
-1877
-1850
-1819
-1800
-1770
-1755
-1768
-1781
-1819
-1840
-1866
-1855
-1830
-1794
-1766
-1748
-1763
-1799
-1820
-1850
-1876
-1857
-1824
-1794
-1773
-1741
-1755
-1791
-1836
-1857
-1874
-1852
-1820
-1780
-1780
-1820
-1913
-2068
-2198
-2322
-2451
-2551
-2549
-2193
-1599
-944
-294
361
1004
1679
2348
3045
3756
4458
5013
4967
4428
3774
3078
2363
1644
940
278
-385
-1059
-1750
-2376
-2647
-2657
-2577
-2472
-2304
-2157
-1999
-1848
-1775
-1757
-1789
-1825
-1844
-1853
-1854
-1819
-1788
-1779
-1755
-1756
-1784
-1809
-1831
-1831
-1822
-1785
-1755
-1734
-1699
-1710
-1741
-1759
-1784
-1801
-1781
-1737
-1701
-1667
-1636
-1649
-1688
-1697
-1702
-1716
-1669
-1627
-1569
-1514
-1484
-1484
-1502
-1520
-1537
-1546
-1517
-1476
-1436
-1381
-1348
-1366
-1392
-1421
-1424
-1433
-1407
-1374
-1329
-1288
-1245
-1254
-1252
-1262
-1274
-1272
-1251
-1205
-1166
-1128
-1096
-1094
-1120
-1147
-1151
-1144
-1102
-1024
-976
-925
-871
-862
-864
-856
-846
-829
-773
-693
-609
-553
-514
-522
-527
-549
-541
-532
-471
-422
-402
-391
-404
-432
-467
-496
-547
-579
-590
-594
-582
-601
-626
-695
-752
-817
-926
-1032
-1097
-1144
-1207
-1254
-1336
-1432
-1529
-1608
-1657
-1720
-1737
-1743
-1726
-1739
-1739
-1765
-1801
-1834
-1852
-1883
-1875
-1831
-1795
-1768
-1746
-1765
-1795
-1834
-1849
-1874
-1856
-1809
-1782
-1771
-1758
-1769
-1789
-1828
-1856
-1864
-1832
-1819
-1792
-1762
-1754
-1768
-1795
-1831
-1846
-1859
-1845
-1813
-1796
-1771
