
-454
-672
-791
-876
-929
-969
-1071
-1166
-1227
-1277
-1309
-1302
-1298
-1320
-1318
-1360
-1392
-1424
-1406
-1394
-1397
-1406
-1407
-1427
-1414
-1409
-1395
-1377
-1384
-1410
-1424
-1411
-1434
-1436
-1396
-1364
-1361
-1368
-1391
-1426
-1439
-1436
-1399
-1354
-1331
-1339
-1375
-1402
-1399
-1419
-1404
-1366
-1353
-1355
-1358
-1375
-1388
-1411
-1386
-1363
-1352
-1352
-1361
-1379
-1366
-1382
-1369
-1359
-1349
-1364
-1394
-1414
-1411
-1392
-1374
-1336
-1326
-1335
-1354
-1391
-1423
-1409
-1368
-1352
-1315
-1307
-1333
-1366
-1377
-1392
-1376
-1343
-1328
-1337
-1324
-1346
-1375
-1388
-1349
-1338
-1333
-1329
-1331
-1317
-1286
-1242
-1169
-1119
-1066
-1047
-1029
-1014
-991
-951
-879
-823
-801
-795
-792
-811
-824
-825
-785
-751
-724
-739
-769
-807
-845
-895
-922
-899
-884
-924
-962
-1007
-1071
-1122
-1152
-1197
-1229
-1249
-1298
-1332
-1330
-1334
-1322
-1303
-1292
-1321
-1347
-1356
-1349
-1357
-1325
-1279
-1275
-1296
-1327
-1365
-1349
-1352
-1334
-1301
-1260
-1276
-1318
-1341
-1344
-1354
-1335
-1302
-1285
-1282
-1286
-1316
-1332
-1351
-1324
-1322
-1300
-1300
-1321
-1353
-1377
-1407
-1431
-1453
-1481
-1544
-1542
-1347
-1060
-761
-426
-84
242
528
820
1093
1394
1711
1821
1378
660
-180
-1107
-2041
-2954
-3854
-4721
-5571
-6459
-7381
-7951
-7677
-6964
-6113
-5201
-4302
-3387
-2482
-1747
-1451
-1369
-1342
-1304
-1279
-1271
-1282
-1312
-1339
-1335
-1319
-1294
-1248
-1229
-1244
-1263
-1280
-1258
-1259
-1224
-1186
-1150
-1142
-1163
-1184
-1206
-1207
-1172
-1134
-1099
-1096
-1092
-1114
-1113
-1108
-1072
-1058
-1056
-1047
-1037
-1049
-1019
-1007
-975
-943
-916
-924
-929
-933
-912
-902
-854
-823
-803
-812
-829
-859
-854
-836
-785
-749
-694
-682
-685
-700
-704
-696
-685
-645
-614
-603
-593
-594
-606
-603
-551
-516
-484
-459
-429
-434
-410
-360
-305
-261
-197
-166
-156
-130
-83
-61
-14
45
78
80
78
49
52
56
72
113
118
91
76
44
6
-52
-91
-83
-97
-123
-184
-249
-319
-400
-457
-527
-612
-704
-807
-904
-977
-1033
-1063
-1082
-1103
-1161
-1213
-1264
-1283
-1290
-1256
-1226
-1232
-1258
-1275
-1323
-1338
-1318
-1299
-1258
-1232
-1229
-1258
-1274
-1305
-1320
-1316
-1269
-1248
-1255
-1249
-1266
-1292
-1298
-1292
-1282
-1281
-1270
-1269
-1282
-1274
-1274
-1255
-1249
-1251
-1291
-1287
-1300
-1309
-1309
-1266
-1237
-1228
-1249
-1265
-1296
-1321
-1317
-1290
-1262
-1219
-1232
-1273
-1286
-1296
-1313
-1303
-1274
-1235
-1251
-1269
-1266
-1289
-1288
-1267
-1257
-1261
-1267
-1277
-1291
-1276
-1271
-1269
-1236
-1234
-1266
-1297
-1304
-1318
-1305
-1252
-1213
-1231
-1241
-1267
-1304
-1315
-1309
-1279
-1252
-1220
-1221
-1236
-1273
-1302
-1326
-1310
-1280
-1251
-1244
-1256
-1254
-1273
-1282
-1273
-1264
-1254
-1253
-1271
-1287
-1283
-1258
-1260
-1250
-1247
-1269
-1282
-1284
-1287
-1291
-1271
-1226
-1223
-1237
-1241
-1236
-1207
-1163
-1082
-999
-930
-894
-879
-882
-876
-866
-834
-781
-711
-691
-685
-697
-712
-739
-720
-704
-695
-706
-740
-771
-794
-810
-816
-834
-867
-912
-984
-1029
-1061
-1091
-1134
-1141
-1166
-1222
-1251
-1288
-1299
-1311
-1280
-1234
-1202
-1207
-1239
-1277
-1301
-1303
-1302
-1280
-1256
-1253
-1245
-1260
-1291
-1296
-1277
-1269
-1250
-1264
-1264
-1274
-1280
-1279
-1260
-1236
-1239
-1257
-1272
-1291
-1289
-1306
-1258
-1231
-1218
-1236
-1276
-1353
-1396
-1432
-1453
-1436
-1459
-1437
-1242
-997
-722
-445
-113
228
573
883
1199
1507
1799
1890
1418
666
-156
-1044
-1963
-2889
-3766
-4637
-5519
-6400
-7276
-7870
-7642
-6947
-6097
-5202
-4267
-3335
-2413
-1677
-1401
-1351
-1344
-1314
-1274
-1245
-1211
-1216
-1244
-1280
-1293
-1296
-1269
-1235
-1189
-1197
-1195
-1195
-1192
-1199
-1173
-1146
-1122
-1119
-1121
-1127
-1119
-1122
-1093
-1044
-1028
-1059
-1077
-1085
-1076
-1048
-1012
-979
-948
-946
-984
-1008
-1001
-987
-941
-893
-841
-825
-819
-832
-843
-862
-848
-801
-768
-769
-764
-752
-762
-768
-733
-697
-664
-655
-636
-639
-631
-631
-607
-581
-556
-557
-567
-580
-572
-537
-477
-421
-378
-370
-382
-387
-359
-316
-250
-176
-102
-54
-38
-45
-19
-9
9
61
115
126
136
132
108
91
109
112
106
83
64
52
12
-20
-35
-69
-117
-177
-241
-303
-377
-456
-502
-555
-634
-729
-845
-966
-1031
-1071
-1075
-1079
-1082
-1119
-1178
-1244
-1271
-1296
-1283
-1256
-1238
-1223
-1233
-1251
-1259
-1286
-1276
-1246
-1246
-1246
-1253
-1259
-1258
-1258
-1249
-1230
-1225
-1242
-1286
-1282
-1289
-1282
-1261
-1205
-1191
-1213
-1252
-1274
-1286
-1284
-1257
-1234
-1192
-1197
-1219
-1251
-1284
-1277
-1257
-1239
-1219
-1226
-1238
-1249
-1254
-1282
-1259
-1247
-1246
-1246
-1254
-1268
-1275
-1249
-1222
-1208
-1216
-1227
-1260
-1269
-1281
-1280
-1251
-1214
-1207
-1211
-1239
-1279
-1294
-1283
-1261
-1225
-1198
-1201
-1227
-1259
-1280
-1306
-1280
-1246
-1212
-1230
-1236
-1236
-1250
-1276
-1265
-1242
-1232
-1233
-1234
-1246
-1267
-1255
-1244
-1220
-1216
-1232
-1266
-1289
-1286
-1290
-1249
-1211
-1210
-1211
-1242
-1284
-1299
-1286
-1255
-1222
-1181
-1194
-1215
-1238
-1262
-1282
-1269
-1246
-1221
-1182
-1152
-1112
-1082
-1059
-1009
-946
-885
-862
-851
-831
-788
-764
-730
-693
-660
-684
-704
-712
-719
-717
-681
-644
-646
-676
-732
-796
-829
-853
-840
-836
-835
-885
-959
-1017
-1082
-1129
-1159
-1167
-1189
-1214
-1217
-1233
-1252
-1270
-1241
-1230
-1223
-1226
-1242
-1253
-1252
-1226
-1222
-1229
-1219
-1258
-1278
-1271
-1270
-1268
-1225
-1213
-1199
-1202
-1227
-1278
-1288
-1297
-1272
-1222
-1181
-1180
-1221
-1251
-1282
-1291
-1274
-1234
-1211
-1235
-1284
-1341
-1381
-1425
-1451
-1477
-1429
-1247
-984
-694
-404
-87
242
571
898
1203
1495
1794
1898
1439
711
-101
-967
-1893
-2826
-3746
-4651
-5534
-6371
-7231
-7804
-7586
-6899
-6081
-5222
-4319
-3387
-2446
-1662
-1347
-1262
-1245
-1249
-1259
-1241
-1236
-1228
-1222
-1238
-1259
-1242
-1217
-1204
-1176
-1155
-1162
-1178
-1204
-1204
-1175
-1124
-1089
-1077
-1082
-1106
-1127
-1137
-1120
-1084
-1047
-1002
-996
-1017
-1046
-1046
-1051
-1028
-970
-942
-945
-958
-942
-930
-946
-908
-868
-846
-838
-824
-839
-827
-812
-783
-763
-737
-762
-778
-767
-746
-729
-673
-617
-598
-604
-614
-649
-642
-620
-601
-566
-524
-517
-531
-537
-516
-501
-477
-436
-375
-354
-309
-292
-290
-252
-192
-127
-71
-37
-10
-9
27
52
69
113
142
155
130
113
110
106
116
136
139
130
76
15
-42
-78
-82
-102
-107
-146
-224
-340
-441
-542
-602
-657
-717
-806
-894
-971
-1028
-1081
-1095
-1111
-1133
-1167
-1214
-1240
-1254
-1252
-1237
-1223
-1205
-1212
-1260
-1274
-1268
-1249
-1205
-1191
-1173
-1192
-1231
-1279
-1294
-1274
-1241
-1210
-1192
-1199
-1220
-1248
-1266
-1271
-1249
-1229
-1207
-1209
-1209
-1224
-1244
-1261
-1247
-1221
-1204
-1222
-1224
-1236
-1231
-1234
-1219
-1198
-1205
-1226
-1252
-1280
-1281
-1271
-1231
-1182
-1179
-1204
-1241
-1262
-1270
-1270
-1237
-1204
-1178
-1189
-1215
-1233
-1242
-1270
-1252
-1217
-1206
-1210
-1209
-1217
-1249
-1251
-1236
-1224
-1212
-1220
-1242
-1244
-1242
-1246
-1219
-1209
-1197
-1228
-1247
-1263
-1262
-1250
-1219
-1170
-1166
-1209
-1234
-1252
-1271
-1284
-1247
-1222
-1196
-1195
-1216
-1248
-1274
-1276
-1266
-1230
-1186
-1214
-1211
-1224
-1237
-1242
-1249
-1236
-1210
-1216
-1227
-1251
-1247
-1238
-1229
-1216
-1175
-1161
-1139
-1108
-1052
-1021
-934
-848
-809
-803
-801
-821
-801
-774
-707
-661
-621
-621
-636
-667
-707
-706
-694
-672
-661
-704
-727
-742
-812
-851
-867
-881
-906
-946
-989
-1043
-1096
-1136
-1165
-1192
-1202
-1214
-1251
-1270
-1257
-1258
-1216
-1175
-1177
-1192
-1224
-1264
-1278
-1279
-1234
-1200
-1184
-1192
-1196
-1240
-1249
-1267
-1264
-1228
-1195
-1204
-1222
-1223
-1238
-1257
-1240
-1229
-1224
-1210
-1223
-1247
-1251
-1235
-1228
-1195
-1206
-1284
-1346
-1389
-1415
-1452
-1457
-1408
-1208
-950
-667
-388
-87
225
547
883
1244
1565
1874
1958
1486
696
-156
-1001
-1863
-2764
-3671
-4575
-5483
-6386
-7234
-7811
-7567
-6887
-6071
-5202
-4297
-3379
-2458
-1686
-1343
-1272
-1267
-1267
-1249
-1254
-1227
-1188
-1189
-1198
-1216
-1250
-1271
-1238
-1199
-1142
-1110
-1121
-1138
-1152
-1167
-1172
-1156
-1102
-1070
-1061
-1059
-1071
-1077
-1078
-1065
-1039
-1016
-1005
-1006
-1028
-1017
-999
-952
-926
-922
-925
-929
-932
-922
-899
-858
-794
-769
-766
-786
-808
-822
-817
-784
-731
-689
-690
-697
-705
-709
-714
-684
-637
-602
-582
-574
-572
-590
-592
-573
-547
-526
-514
-514
-497
-471
-442
-402
-352
-316
-316
-307
-280
-234
-172
-97
-30
14
36
46
39
32
41
89
133
191
211
173
141
126
104
97
110
143
134
90
39
-25
-77
-124
-154
-182
-218
-306
-409
-505
-571
-642
-713
-781
-879
-963
-1033
-1078
-1099
-1099
-1096
-1117
-1157
-1199
-1247
-1271
-1258
-1225
-1188
-1171
-1177
-1200
-1222
-1244
-1265
-1256
-1219
-1189
-1180
-1190
-1211
-1222
-1232
-1228
-1225
-1212
-1204
-1219
-1241
-1232
-1226
-1219
-1205
-1182
-1199
-1227
-1255
-1262
-1271
-1229
-1181
-1174
-1199
-1217
-1251
-1281
-1277
-1237
-1201
-1180
-1175
-1217
-1245
-1253
-1266
-1253
-1215
-1196
-1189
-1194
-1212
-1219
-1231
-1231
-1229
-1217
-1212
-1212
-1244
-1238
-1231
-1198
-1186
-1175
-1197
-1233
-1244
-1247
-1245
-1215
-1181
-1181
-1212
-1216
-1242
-1272
-1272
-1236
-1194
-1159
-1167
-1217
-1247
-1249
-1259
-1246
-1217
-1187
-1186
-1206
-1222
-1227
-1254
-1237
-1222
-1202
-1215
-1227
-1247
-1256
-1242
-1215
-1201
-1189
-1219
-1252
-1264
-1266
-1259
-1234
-1192
-1164
-1190
-1226
-1254
-1261
-1262
-1234
-1169
-1111
-1059
-1044
-1022
-999
-976
-926
-862
-811
-772
-749
-756
-740
-721
-694
-668
-644
-641
-656
-678
-675
-661
-651
-659
-678
-706
-751
-799
-844
-866
-859
-860
-892
-971
-1028
-1104
-1159
-1189
-1205
-1192
-1161
-1177
-1192
-1220
-1256
-1277
-1256
-1214
-1194
-1209
-1207
-1214
-1221
-1243
-1250
-1236
-1208
-1208
-1220
-1232
-1222
-1237
-1224
-1202
-1196
-1225
-1241
-1242
-1228
-1232
-1194
-1178
-1182
-1191
-1226
-1232
-1256
-1249
-1231
-1225
-1209
-1250
-1321
-1390
-1454
-1486
-1446
-1230
-939
-628
-322
-31
238
532
854
1183
1509
1846
1982
1511
749
-100
-966
-1837
-2743
-3657
-4582
-5496
-6366
-7227
-7786
-7516
-6827
-6030
-5197
-4329
-3426
-2504
-1707
-1352
-1213
-1196
-1217
-1236
-1252
-1249
-1229
-1202
-1167
-1182
-1201
-1204
-1211
-1212
-1182
-1154
-1144
-1131
-1134
-1158
-1127
-1097
-1086
-1070
-1037
-1058
-1081
-1094
-1077
-1059
-1022
-973
-956
-967
-1002
-1012
-1014
-1005
-979
-929
-889
-870
-877
-891
-901
-896
-868
-813
-764
-753
-742
-763
-775
-779
-759
-746
-727
-715
-684
-692
-671
-650
-624
-580
-558
-559
-572
-577
-581
-581
-537
-490
-469
-465
-467
-477
-477
-462
-404
-350
-277
-241
-226
-196
-177
-170
-109
-22
33
76
87
79
87
88
112
158
185
173
165
136
123
121
123
143
141
87
16
-37
-71
-113
-130
-144
-189
-282
-374
-491
-607
-683
-742
-802
-843
-907
-978
-1042
-1092
-1137
-1166
-1155
-1147
-1163
-1191
-1206
-1228
-1247
-1234
-1216
-1192
-1197
-1206
-1221
-1220
-1219
-1207
-1201
-1196
-1214
-1211
-1236
-1260
-1257
-1217
-1171
-1164
-1193
-1229
-1246
-1255
-1255
-1227
-1204
-1172
-1172
-1206
-1233
-1242
-1259
-1239
-1222
-1191
-1199
-1192
-1208
-1251
-1247
-1227
-1218
-1209
-1194
-1202
-1231
-1222
-1227
-1213
-1179
-1187
-1217
-1239
-1242
-1229
-1226
-1209
-1189
-1174
-1189
-1212
-1241
-1250
-1253
-1226
-1190
-1176
-1172
-1199
-1226
-1242
-1265
-1247
-1211
-1196
-1191
-1183
-1201
-1221
-1232
-1212
-1206
-1202
-1194
-1199
-1228
-1238
-1226
-1215
-1186
-1189
-1213
-1241
-1251
-1254
-1241
-1215
-1191
-1168
-1187
-1222
-1237
-1249
-1261
-1229
-1196
-1162
-1162
-1189
-1219
-1237
-1252
-1244
-1198
-1179
-1177
-1189
-1217
-1236
-1234
-1185
-1138
-1082
-1049
-1024
-991
-935
-874
-831
-799
-762
-751
-764
-752
-716
-691
-659
-618
-609
-606
-630
-674
-702
-711
-677
-682
-669
-701
-759
-819
-849
-882
-923
-925
-935
-976
-1046
-1099
-1147
-1211
-1220
-1206
-1196
-1200
-1211
-1222
-1224
-1225
-1221
-1200
-1181
-1191
-1220
-1241
-1254
-1245
-1207
-1177
-1168
-1180
-1194
-1219
-1251
-1254
-1228
-1189
-1153
-1169
-1200
-1226
-1247
-1256
-1238
-1198
-1182
-1191
-1202
-1218
-1220
-1241
-1241
-1259
-1288
-1327
-1370
-1441
-1469
-1434
-1242
-954
-647
-363
-67
236
547
860
1196
1546
1879
2002
1543
759
-114
-987
-1834
-2720
-3598
-4495
-5413
-6344
-7243
-7849
-7610
-6883
-6025
-5156
-4275
-3392
-2491
-1720
-1381
-1246
-1214
-1201
-1214
-1228
-1229
-1225
-1204
-1199
-1175
-1181
-1194
-1206
-1199
-1185
-1147
-1105
-1084
-1105
-1126
-1145
-1154
-1137
-1091
-1064
-1013
-1018
-1034
-1049
-1046
-1055
-1054
-1024
-976
-965
-949
-951
-986
-987
-959
-921
-894
-894
-893
-886
-874
-856
-822
-783
-762
-759
-788
-788
-779
-777
-738
-684
-652
-653
-666
-673
-682
-670
-621
-570
-520
-511
-542
-554
-588
-585
-556
-507
-460
-437
-414
-404
-415
-401
-359
-329
-271
-236
-202
-170
-119
-57
-8
44
77
84
74
78
84
99
155
185
219
208
175
119
93
74
104
124
123
80
31
-33
-112
-177
-207
-224
-275
-371
-441
-546
-640
-731
-825
-886
-925
-972
-1017
-1072
-1102
-1141
-1163
-1180
-1177
-1197
-1246
-1244
-1224
-1212
-1189
-1169
-1162
-1180
-1199
-1238
-1261
-1254
-1227
-1193
-1162
-1177
-1191
-1216
-1239
-1262
-1253
-1215
-1178
-1199
-1199
-1208
-1215
-1237
-1230
-1215
-1194
-1194
-1221
-1234
-1237
-1227
-1208
-1192
-1176
-1199
-1217
-1245
-1236
-1226
-1199
-1168
-1151
-1175
-1197
-1237
-1268
-1267
-1225
-1181
-1147
-1160
-1187
-1216
-1236
-1253
-1257
-1212
-1188
-1190
-1186
-1209
-1220
-1234
-1207
-1201
-1196
-1197
-1212
-1234
-1230
-1232
-1211
-1201
-1171
-1201
-1224
-1231
-1240
-1238
-1193
-1170
-1161
-1171
-1202
-1243
-1267
-1242
-1216
-1183
-1152
-1149
-1187
-1226
-1248
-1266
-1241
-1202
-1186
-1179
-1177
-1202
-1227
-1222
-1208
-1194
-1197
-1203
-1197
-1222
-1241
-1236
-1220
-1181
-1172
-1214
-1233
-1250
-1230
-1202
-1139
-1054
-999
-982
-961
-958
-933
-897
-839
-760
-714
-695
-691
-701
-690
-687
-689
-650
-614
-611
-616
-637
-656
-692
-699
-717
-734
-762
-795
-848
-866
-886
-926
-956
-982
-1041
-1127
-1172
-1206
-1222
-1205
-1174
-1173
-1189
-1223
-1257
-1268
-1256
-1236
-1196
-1159
-1161
-1179
-1211
-1236
-1231
-1221
-1201
-1191
-1197
-1185
-1197
-1224
-1233
-1233
-1218
-1210
-1197
-1197
-1228
-1223
-1215
-1204
-1185
-1174
-1191
-1229
-1251
-1255
-1266
-1249
-1242
-1270
-1334
-1409
-1466
-1470
-1286
-986
-653
-304
24
303
564
864
1156
1460
1811
1982
1569
823
-34
-934
-1838
-2730
-3606
-4488
-5402
-6312
-7231
-7839
-7603
-6887
-6042
-5150
-4285
-3419
-2517
-1739
-1384
-1261
-1204
-1176
-1184
-1197
-1242
-1263
-1265
-1228
-1194
-1152
-1142
-1165
-1179
-1181
-1191
-1167
-1134
-1093
-1082
-1087
-1096
-1104
-1102
-1077
-1059
-1027
-1019
-1032
-1052
-1036
-1014
-987
-969
-952
-974
-987
-984
-965
-958
-930
-877
-851
-842
-857
-893
-882
-849
-802
-770
-731
-717
-729
-756
-765
-781
-754
-701
-662
-636
-629
-624
-631
-614
-600
-581
-548
-545
-548
-538
-522
-516
-497
-481
-438
-436
-436
-425
-400
-365
-302
-229
-189
-162
-143
-123
-103
-64
3
66
111
134
119
114
113
108
140
168
195
179
178
153
123
96
88
89
51
10
-41
-106
-142
-194
-238
-291
-346
-443
-541
-641
-737
-821
-872
-904
-937
-974
-1042
-1131
-1177
-1192
-1197
-1177
-1156
-1141
-1174
-1211
-1232
-1251
-1243
-1206
-1183
-1197
-1179
-1202
-1219
-1237
-1219
-1196
-1189
-1196
-1202
-1216
-1211
-1211
-1192
-1184
-1173
-1191
-1216
-1237
-1225
-1232
-1186
-1164
-1163
-1190
-1197
-1237
-1261
-1251
-1208
-1190
-1156
-1147
-1180
-1204
-1227
-1261
-1243
-1203
-1177
-1175
-1187
-1192
-1217
-1232
-1218
-1195
-1187
-1192
-1195
-1201
-1211
-1216
-1192
-1173
-1156
-1191
-1222
-1232
-1233
-1234
-1200
-1153
-1147
-1177
-1207
-1229
-1247
-1246
-1214
-1176
-1152
-1159
-1184
-1217
-1240
-1255
-1249
-1209
-1172
-1179
-1192
-1200
-1206
-1229
-1222
-1222
-1198
-1192
-1196
-1215
-1213
-1219
-1201
-1192
-1167
-1185
-1215
-1236
-1227
-1221
-1187
-1149
-1159
-1170
-1201
-1246
-1257
-1244
-1211
-1174
-1160
-1169
-1187
-1207
-1201
-1182
-1125
-1042
-969
-928
-887
-863
-857
-849
-808
-769
-737
-705
-671
-656
-657
-659
-649
-633
-619
-626
-637
-669
-692
-709
-709
-701
-712
-754
-810
-862
-931
-972
-984
-997
-1002
-1052
-1112
-1176
-1209
-1234
-1227
-1214
-1177
-1164
-1186
-1206
-1222
-1234
-1225
-1198
-1192
-1187
-1198
-1221
-1227
-1219
-1204
-1177
-1162
-1181
-1213
-1234
-1239
-1229
-1189
-1159
-1157
-1190
-1224
-1244
-1252
-1245
-1212
-1190
-1161
-1149
-1177
-1220
-1266
-1305
-1309
-1327
-1329
-1377
-1416
-1423
-1267
-1003
-691
-354
-31
281
591
878
1185
1498
1836
2004
1598
839
-37
-952
-1834
-2721
-3576
-4434
-5337
-6261
-7195
-7876
-7658
-6946
-6076
-5158
-4237
-3358
-2472
-1731
-1404
-1292
-1242
-1200
-1167
-1180
-1184
-1192
-1207
-1229
-1204
-1177
-1174
-1172
-1174
-1171
-1147
-1136
-1121
-1116
-1083
-1104
-1110
-1116
-1104
-1101
-1058
-1016
-997
-1006
-1021
-1047
-1054
-1032
-996
-963
-912
-902
-936
-954
-964
-972
-939
-881
-849
-837
-807
-812
-827
-813
-786
-762
-746
-737
-739
-736
-722
-711
-689
-662
-635
-641
-643
-656
-634
-605
-568
-523
-502
-531
-530
-543
-561
-544
-521
-460
-386
-364
-366
-366
-363
-346
-306
-231
-149
-107
-71
-55
-32
1
44
74
105
128
131
125
149
165
166
176
194
181
153
122
103
99
89
76
63
11
-69
-162
-227
-267
-310
-364
-407
-475
-588
-717
-824
-911
-960
-967
-979
-1019
-1047
-1114
-1168
-1206
-1211
-1214
-1186
-1189
-1191
-1203
-1223
-1217
-1197
-1177
-1163
-1192
-1235
-1237
-1235
-1220
-1193
-1169
-1152
-1169
-1196
-1231
-1234
-1226
-1196
-1174
-1139
-1142
-1174
-1217
-1236
-1247
-1227
-1206
-1150
-1158
-1171
-1185
-1213
-1227
-1216
-1188
-1170
-1175
-1187
-1196
-1217
-1214
-1194
-1179
-1169
-1192
-1223
-1235
-1231
-1221
-1189
-1156
-1161
-1182
-1207
-1241
-1257
-1237
-1206
-1190
-1156
-1156
-1177
-1214
-1211
-1226
-1227
-1201
-1172
-1171
-1191
-1188
-1204
-1223
-1215
-1201
-1192
-1184
-1195
-1197
-1196
-1199
-1198
-1187
-1177
-1187
-1209
-1221
-1217
-1221
-1189
-1162
-1152
-1172
-1194
-1226
-1242
-1232
-1206
-1175
-1151
-1156
-1185
-1202
-1218
-1232
-1222
-1187
-1165
-1176
-1184
-1181
-1220
-1236
-1211
-1192
-1183
-1196
-1171
-1151
-1133
-1094
-1034
-974
-921
-901
-874
-853
-831
-814
-757
-699
-649
-644
-647
-661
-681
-675
-649
-618
-581
-587
-617
-682
-725
-747
-764
-759
-745
-774
-817
-877
-951
-999
-1031
-1053
-1084
-1132
-1163
-1196
-1204
-1221
-1187
-1161
-1172
-1204
-1217
-1224
-1232
-1245
-1199
-1166
-1158
-1157
-1187
-1231
-1246
-1246
-1215
-1177
-1160
-1162
-1181
-1196
-1236
-1267
-1247
-1191
-1158
-1164
-1165
-1190
-1205
-1222
-1206
-1202
-1196
-1202
-1187
-1221
-1261
-1287
-1329
-1348
-1344
-1397
-1419
-1259
-994
-701
-364
-12
321
614
908
1183
1476
1796
1949
1574
885
36
-875
-1794
-2713
-3624
-4488
-5345
-6226
-7131
-7795
-7613
-6939
-6119
-5216
-4298
-3391
-2484
-1701
-1376
-1261
-1237
-1194
-1187
-1178
-1192
-1214
-1222
-1224
-1215
-1169
-1137
-1119
-1135
-1140
-1169
-1178
-1171
-1144
-1088
-1036
-1029
-1047
-1076
-1099
-1088
-1075
-1034
-1006
-993
-981
-1003
-998
-997
-984
-981
-955
-934
-929
-942
-927
-922
-887
-864
-831
-826
-827
-844
-833
-792
-744
-713
-687
-717
-737
-754
-766
-746
-702
-644
-592
-577
-593
-603
-616
-629
-592
-547
-511
-505
-501
-512
-529
-514
-481
-445
-401
-366
-353
-347
-312
-280
-216
-149
-96
-67
-54
-33
2
33
89
144
164
174
160
136
139
141
163
191
216
199
168
132
107
57
26
23
21
-31
-100
-151
-209
-309
-369
-458
-522
-614
-712
-806
-880
-931
-964
-994
-1016
-1061
-1128
-1174
-1204
-1208
-1183
-1157
-1139
-1157
-1187
-1233
-1255
-1249
-1214
-1172
-1142
-1154
-1181
-1208
-1217
-1248
-1236
-1195
-1153
-1152
-1161
-1181
-1204
-1220
-1198
-1187
-1177
-1176
-1188
-1203
-1207
-1211
-1192
-1175
-1156
-1169
-1203
-1226
-1224
-1241
-1202
-1161
-1148
-1157
-1185
-1233
-1258
-1249
-1219
-1184
-1142
-1152
-1176
-1201
-1229
-1256
-1237
-1200
-1172
-1163
-1174
-1196
-1207
-1217
-1209
-1197
-1172
-1184
-1189
-1217
-1198
-1197
-1204
-1178
-1157
-1176
-1202
-1237
-1230
-1216
-1181
-1161
-1146
-1156
-1202
-1223
-1244
-1229
-1196
-1174
-1150
-1151
-1168
-1214
-1229
-1241
-1218
-1172
-1157
-1167
-1182
-1198
-1202
-1220
-1214
-1203
-1190
-1176
-1183
-1196
-1195
-1199
-1191
-1166
-1156
-1173
-1208
-1226
-1216
-1218
-1186
-1156
-1156
-1148
-1147
-1157
-1136
-1086
-1011
-931
-865
-829
-825
-833
-809
-787
-747
-704
-647
-638
-626
-632
-636
-649
-637
-628
-611
-627
-656
-679
-702
-717
-751
-752
-775
-831
-883
-936
-988
-1017
-1018
-1046
-1091
-1147
-1182
-1217
-1239
-1237
-1212
-1172
-1138
-1145
-1169
-1211
-1242
-1249
-1242
-1203
-1164
-1157
-1164
-1192
-1204
-1216
-1216
-1197
-1181
-1186
-1187
-1199
-1192
-1197
-1181
-1172
-1160
-1188
-1215
-1223
-1229
-1224
-1173
-1164
-1154
-1167
-1207
-1281
-1339
-1364
-1378
-1370
-1366
-1376
-1224
-989
-704
-432
-97
274
614
921
1234
1536
1831
1951
1559
824
0
-869
-1770
-2683
-3580
-4452
-5322
-6204
-7097
-7787
-7647
-6978
-6137
-5251
-4312
-3382
-2455
-1686
-1357
-1281
-1253
-1250
-1212
-1175
-1132
-1137
-1180
-1207
-1222
-1229
-1197
-1152
-1130
-1120
-1104
-1111
-1135
-1118
-1114
-1097
-1072
-1074
-1086
-1069
-1057
-1046
-1023
-1004
-969
-991
-1010
-1008
-1007
-996
-952
-916
-902
-911
-931
-930
-933
-919
-884
-826
-793
-772
-776
-791
-796
-810
-789
-743
-705
-709
-690
-708
-715
-694
-677
-653
-619
-596
-583
-581
-569
-558
-546
-520
-501
-522
-529
-520
-504
-481
-426
-379
-343
-345
-330
-317
-301
-276
-209
-123
-41
6
18
28
33
27
58
117
141
174
189
191
174
146
154
163
159
162
164
129
84
51
30
-14
-45
-102
-162
-226
-303
-381
-439
-487
-569
-661
-769
-901
-978
-1002
-1017
-1016
-1011
-1052
-1108
-1169
-1221
-1246
-1230
-1191
-1154
-1161
-1172
-1193
-1223
-1213
-1210
-1192
-1169
-1175
-1189
-1192
-1194
-1204
-1198
-1180
-1169
-1187
-1212
-1229
-1221
-1210
-1179
-1161
-1141
-1161
-1188
-1229
-1250
-1256
-1197
-1157
-1145
-1154
-1163
-1203
-1227
-1242
-1234
-1188
-1156
-1153
-1152
-1175
-1201
-1219
-1202
-1196
-1182
-1177
-1177
-1211
-1207
-1204
-1178
-1145
-1156
-1171
-1199
-1218
-1229
-1212
-1173
-1141
-1144
-1166
-1199
-1226
-1225
-1225
-1209
-1179
-1147
-1139
-1168
-1196
-1215
-1231
-1206
-1181
-1167
-1157
-1170
-1201
-1203
-1219
-1212
-1204
-1179
-1187
-1186
-1202
-1222
-1214
-1182
-1176
-1164
-1182
-1216
-1226
-1231
-1226
-1194
-1162
-1149
-1171
-1192
-1232
-1237
-1223
-1188
-1169
-1145
-1129
-1162
-1208
-1213
-1240
-1231
-1189
-1159
-1131
-1097
-1071
-1036
-1032
-981
-913
-847
-798
-790
-786
-759
-729
-700
-666
-621
-635
-652
-659
-654
-660
-619
-595
-582
-627
-667
-737
-764
-787
-796
-789
-787
-823
-892
-956
-1022
-1091
-1117
-1127
-1141
-1152
-1171
-1192
-1226
-1222
-1209
-1199
-1179
-1174
-1191
-1203
-1209
-1203
-1206
-1182
-1173
-1180
-1193
-1214
-1222
-1216
-1182
-1154
-1152
-1169
-1194
-1219
-1246
-1219
-1202
-1172
-1144
-1139
-1179
-1199
-1226
-1257
-1224
-1181
-1162
-1181
-1214
-1265
-1325
-1377
-1404
-1416
-1389
-1229
-976
-676
-381
-76
258
586
900
1196
1494
1812
1965
1572
862
43
-823
-1733
-2667
-3607
-4509
-5370
-6227
-7071
-7710
-7568
-6957
-6152
-5276
-4382
-3472
-2517
-1702
-1326
-1210
-1209
-1216
-1215
-1211
-1201
-1187
-1171
-1186
-1190
-1195
-1183
-1167
-1136
-1110
-1133
-1133
-1141
-1137
-1116
-1081
-1043
-1026
-1029
-1049
-1088
-1092
-1073
-1047
-986
-963
-948
-974
-986
-992
-1011
-992
-944
-901
-886
-882
-900
-904
-888
-859
-836
-794
-779
-776
-767
-766
-767
-750
-715
-697
-706
-703
-704
-692
-679
-624
-586
-552
-549
-564
-590
-605
-584
-547
-504
-462
-457
-477
-501
-503
-494
-445
-384
-320
-294
-262
-253
-236
-201
-149
-104
-49
9
52
63
93
93
107
140
188
193
178
155
158
159
170
177
177
168
135
69
6
-27
-46
-67
-76
-116
-175
-285
-393
-487
-557
-614
-673
-746
-822
-914
-974
-1036
-1062
-1089
-1099
-1119
-1169
-1196
-1193
-1209
-1203
-1182
-1173
-1189
-1218
-1227
-1220
-1217
-1185
-1156
-1128
-1156
-1191
-1227
-1247
-1226
-1217
-1171
-1128
-1146
-1179
-1211
-1225
-1242
-1218
-1186
-1153
-1157
-1168
-1181
-1212
-1218
-1217
-1189
-1168
-1179
-1182
-1206
-1206
-1196
-1196
-1178
-1156
-1170
-1202
-1214
-1221
-1202
-1166
-1151
-1150
-1167
-1193
-1232
-1244
-1232
-1200
-1176
-1149
-1151
-1170
-1186
-1209
-1224
-1215
-1201
-1151
-1158
-1156
-1181
-1203
-1214
-1212
-1197
-1173
-1160
-1187
-1211
-1211
-1206
-1191
-1184
-1162
-1166
-1193
-1214
-1211
-1212
-1188
-1159
-1139
-1181
-1204
-1223
-1234
-1216
-1202
-1163
-1134
-1137
-1176
-1207
-1218
-1232
-1222
-1199
-1170
-1156
-1166
-1194
-1217
-1217
-1207
-1181
-1162
-1174
-1183
-1194
-1202
-1205
-1201
-1172
-1132
-1119
-1098
-1070
-1027
-962
-887
-829
-793
-781
-775
-777
-774
-742
-699
-620
-575
-589
-626
-644
-655
-669
-639
-620
-629
-642
-671
-716
-764
-796
-817
-846
-847
-887
-942
-994
-1055
-1101
-1131
-1146
-1153
-1182
-1219
-1225
-1229
-1213
-1186
-1163
-1164
-1173
-1189
-1225
-1229
-1219
-1202
-1162
-1134
-1138
-1157
-1201
-1236
-1234
-1214
-1180
-1166
-1159
-1169
-1195
-1210
-1214
-1217
-1205
-1176
-1173
-1188
-1191
-1188
-1179
-1189
-1189
-1192
-1235
-1291
-1335
-1367
-1396
-1409
-1368
-1195
-944
-674
-404
-95
224
553
883
1233
1563
1864
2004
1586
825
11
-831
-1704
-2600
-3521
-4444
-5343
-6236
-7100
-7736
-7584
-6931
-6132
-5260
-4359
-3447
-2531
-1711
-1337
-1241
-1236
-1223
-1219
-1209
-1173
-1156
-1139
-1164
-1191
-1223
-1225
-1198
-1152
-1124
-1081
-1084
-1112
-1119
-1131
-1144
-1116
-1076
-1036
-1037
-1026
-1041
-1054
-1056
-1051
-1009
-967
-952
-969
-977
-951
-952
-948
-923
-904
-902
-912
-907
-891
-871
-814
-781
-754
-747
-762
-794
-805
-787
-742
-693
-674
-654
-666
-682
-681
-681
-656
-602
-562
-533
-541
-556
-554
-549
-547
-529
-492
-469
-459
-456
-432
-399
-379
-338
-304
-281
-271
-244
-211
-163
-96
-17
35
75
68
67
64
91
126
179
234
228
190
166
143
108
128
144
162
173
135
89
11
-72
-112
-118
-138
-186
-262
-358
-444
-540
-625
-692
-770
-862
-931
-986
-1021
-1055
-1068
-1082
-1101
-1137
-1201
-1224
-1226
-1220
-1202
-1157
-1129
-1127
-1162
-1205
-1224
-1242
-1214
-1174
-1156
-1160
-1167
-1174
-1197
-1227
-1216
-1199
-1174
-1161
-1189
-1196
-1189
-1191
-1190
-1167
-1166
-1184
-1196
-1211
-1214
-1196
-1167
-1145
-1133
-1144
-1182
-1219
-1241
-1233
-1213
-1167
-1136
-1150
-1180
-1212
-1229
-1238
-1219
-1183
-1172
-1154
-1152
-1186
-1204
-1204
-1211
-1189
-1168
-1165
-1177
-1196
-1194
-1190
-1179
-1179
-1178
-1181
-1209
-1221
-1229
-1214
-1165
-1132
-1133
-1157
-1187
-1226
-1244
-1242
-1204
-1161
-1122
-1141
-1179
-1202
-1222
-1226
-1215
-1186
-1156
-1149
-1172
-1196
-1224
-1227
-1210
-1188
-1186
-1182
-1191
-1209
-1197
-1201
-1177
-1162
-1165
-1171
-1208
-1226
-1221
-1205
-1184
-1157
-1147
-1157
-1195
-1216
-1232
-1219
-1198
-1122
-1069
-1042
-1028
-999
-971
-942
-898
-830
-766
-716
-694
-704
-701
-704
-667
-629
-606
-599
-621
-637
-628
-641
-651
-641
-653
-683
-736
-764
-783
-801
-811
-822
-851
-904
-984
-1066
-1130
-1167
-1180
-1162
-1125
-1143
-1169
-1198
-1215
-1230
-1219
-1186
-1147
