
-644
-1297
-1674
-1926
-1890
-1617
-1374
-1222
-1076
-1168
-1436
-1772
-2056
-2287
-2265
-2019
-1709
-1456
-1244
-1268
-1552
-1916
-2186
-2385
-2338
-2075
-1704
-1439
-1236
-1308
-1591
-1952
-2220
-2398
-2314
-2009
-1659
-1427
-1268
-1339
-1611
-1956
-2176
-2337
-2279
-2037
-1708
-1462
-1283
-1314
-1559
-1869
-2116
-2328
-2310
-2056
-1719
-1458
-1248
-1262
-1539
-1869
-2146
-2348
-2305
-2024
-1623
-1287
-1040
-1037
-1252
-1543
-1721
-1817
-1709
-1381
-1009
-732
-531
-564
-804
-1083
-1311
-1481
-1412
-1150
-831
-588
-404
-448
-719
-1062
-1328
-1573
-1597
-1356
-1062
-836
-689
-754
-1095
-1521
-1874
-2142
-2167
-1954
-1625
-1362
-1182
-1249
-1532
-1886
-2146
-2312
-2247
-1954
-1613
-1374
-1209
-1269
-1538
-1856
-2090
-2267
-2220
-1973
-1656
-1422
-1227
-1256
-1507
-1810
-2061
-2271
-2261
-2008
-1679
-1422
-1195
-1206
-1482
-1842
-2099
-2313
-2268
-1987
-1658
-1440
-1319
-1436
-1804
-2221
-2544
-2754
-2438
-1629
-686
193
1019
1626
1994
2311
2738
3236
3941
4777
4961
4422
3597
2512
1203
-205
-1546
-2844
-3931
-4757
-5506
-6219
-6268
-5894
-5560
-5231
-4803
-4281
-3519
-2559
-1806
-1397
-1149
-1206
-1482
-1824
-2101
-2284
-2227
-1935
-1585
-1350
-1174
-1200
-1467
-1791
-1998
-2163
-2126
-1863
-1546
-1298
-1081
-1106
-1334
-1634
-1886
-2080
-2051
-1779
-1434
-1141
-915
-895
-1146
-1489
-1739
-1930
-1897
-1604
-1221
-914
-689
-708
-971
-1301
-1548
-1716
-1638
-1317
-960
-693
-501
-525
-771
-1087
-1309
-1468
-1429
-1125
-777
-523
-324
-315
-523
-801
-1039
-1225
-1212
-934
-574
-308
-81
-57
-283
-582
-822
-1007
-951
-639
-234
103
363
371
144
-147
-352
-485
-372
-22
360
653
873
868
621
326
120
-26
36
292
580
788
955
935
661
338
56
-219
-284
-114
150
354
493
435
83
-384
-807
-1157
-1279
-1152
-926
-781
-679
-772
-1122
-1530
-1854
-2091
-2099
-1866
-1556
-1326
-1154
-1176
-1446
-1767
-1997
-2180
-2170
-1921
-1611
-1354
-1166
-1176
-1424
-1728
-1976
-2187
-2209
-1979
-1646
-1352
-1125
-1117
-1384
-1736
-2013
-2234
-2217
-1957
-1600
-1309
-1102
-1132
-1424
-1769
-2037
-2227
-2187
-1896
-1556
-1324
-1154
-1180
-1463
-1786
-2009
-2191
-2183
-1938
-1622
-1365
-1167
-1154
-1386
-1715
-1977
-2187
-2188
-1940
-1636
-1365
-1134
-1124
-1374
-1720
-2020
-2237
-2225
-1961
-1598
-1311
-1109
-1136
-1414
-1762
-2037
-2226
-2183
-1894
-1561
-1330
-1134
-1156
-1432
-1748
-1986
-2167
-2145
-1918
-1609
-1349
-1156
-1154
-1392
-1706
-1962
-2184
-2196
-1958
-1621
-1345
-1119
-1096
-1377
-1740
-2016
-2224
-2216
-1937
-1591
-1304
-1109
-1129
-1414
-1756
-2019
-2207
-2172
-1894
-1567
-1311
-1142
-1165
-1427
-1717
-1905
-2017
-1920
-1616
-1223
-917
-652
-586
-779
-1061
-1302
-1479
-1447
-1174
-811
-524
-292
-280
-536
-882
-1171
-1381
-1382
-1126
-792
-545
-354
-420
-734
-1128
-1451
-1684
-1713
-1490
-1211
-1039
-933
-1017
-1344
-1709
-1974
-2172
-2147
-1904
-1595
-1352
-1149
-1143
-1373
-1692
-1945
-2175
-2193
-1948
-1632
-1348
-1114
-1097
-1339
-1689
-1977
-2213
-2217
-1946
-1582
-1292
-1086
-1095
-1379
-1738
-2011
-2191
-2160
-1900
-1559
-1303
-1126
-1149
-1421
-1764
-2051
-2304
-2380
-2216
-1947
-1766
-1607
-1345
-1070
-771
-411
41
678
1562
2541
3458
4331
5013
5359
4929
3875
2663
1585
737
3
-789
-1681
-2774
-4128
-5566
-6827
-7304
-6904
-6019
-5005
-4042
-3134
-2420
-1999
-1916
-2027
-2155
-2149
-1904
-1600
-1349
-1155
-1136
-1369
-1674
-1926
-2141
-2167
-1917
-1567
-1291
-1057
-1006
-1247
-1591
-1863
-2076
-2092
-1825
-1445
-1126
-919
-917
-1169
-1492
-1764
-1944
-1907
-1611
-1262
-1001
-802
-774
-1011
-1332
-1545
-1696
-1701
-1427
-1095
-820
-594
-554
-736
-1036
-1299
-1483
-1494
-1253
-910
-608
-369
-322
-549
-851
-1117
-1326
-1321
-1029
-644
-317
-89
-82
-321
-654
-915
-1090
-1062
-779
-406
-89
133
173
-47
-334
-538
-652
-614
-335
63
381
625
699
538
289
53
-119
-109
139
489
803
1088
1135
863
515
213
-22
-67
163
493
759
893
824
497
79
-280
-542
-590
-424
-218
-81
-57
-200
-583
-1042
-1419
-1713
-1789
-1606
-1339
-1142
-1005
-1040
-1316
-1652
-1924
-2137
-2169
-1946
-1621
-1355
-1117
-1072
-1316
-1669
-1959
-2174
-2215
-1962
-1593
-1304
-1094
-1086
-1352
-1706
-1974
-2167
-2162
-1895
-1562
-1310
-1137
-1122
-1373
-1692
-1954
-2125
-2129
-1921
-1610
-1349
-1142
-1112
-1335
-1632
-1903
-2133
-2180
-1937
-1615
-1343
-1115
-1059
-1304
-1654
-1944
-2179
-2214
-1954
-1591
-1301
-1078
-1078
-1346
-1695
-1971
-2174
-2159
-1895
-1561
-1300
-1122
-1116
-1370
-1688
-1934
-2112
-2158
-1925
-1596
-1339
-1139
-1104
-1326
-1641
-1911
-2131
-2181
-1950
-1620
-1343
-1104
-1039
-1304
-1664
-1957
-2174
-2209
-1968
-1606
-1302
-1088
-1084
-1341
-1684
-1962
-2168
-2169
-1902
-1566
-1316
-1125
-1110
-1351
-1685
-1951
-2133
-2132
-1904
-1604
-1344
-1142
-1111
-1334
-1636
-1910
-2121
-2175
-1964
-1584
-1241
-946
-831
-992
-1275
-1499
-1666
-1654
-1351
-951
-620
-376
-327
-563
-876
-1142
-1332
-1327
-1060
-738
-473
-282
-285
-548
-892
-1176
-1401
-1454
-1264
-991
-766
-603
-640
-903
-1279
-1620
-1931
-2041
-1886
-1604
-1336
-1100
-1055
-1304
-1650
-1956
-2169
-2211
-1956
-1594
-1292
-1086
-1074
-1331
-1671
-1954
-2152
-2159
-1899
-1572
-1313
-1116
-1099
-1357
-1676
-1926
-2118
-2156
-1918
-1619
-1330
-1136
-1102
-1309
-1620
-1912
-2131
-2189
-1972
-1664
-1436
-1266
-1271
-1582
-1991
-2367
-2630
-2434
-1659
-683
248
1096
1781
2183
2484
2853
3296
3928
4765
5028
4546
3755
2706
1365
-56
-1396
-2663
-3804
-4671
-5457
-6186
-6266
-5831
-5437
-5062
-4629
-4129
-3481
-2572
-1825
-1409
-1149
-1059
-1274
-1618
-1934
-2156
-2195
-1944
-1589
-1274
-1061
-1022
-1285
-1616
-1886
-2072
-2084
-1835
-1502
-1210
-1015
-985
-1216
-1523
-1767
-1941
-1966
-1730
-1402
-1109
-890
-831
-1015
-1301
-1567
-1779
-1816
-1593
-1252
-941
-678
-587
-797
-1126
-1404
-1594
-1624
-1338
-963
-640
-410
-376
-619
-942
-1219
-1404
-1399
-1107
-752
-447
-232
-189
-401
-710
-962
-1126
-1132
-886
-564
-277
-52
4
-176
-441
-671
-846
-868
-610
-252
73
371
488
328
54
-211
-378
-376
-89
321
673
938
1000
791
486
223
39
17
272
613
876
1028
1039
782
434
144
-110
-222
-69
176
369
502
494
183
-242
-661
-1023
-1227
-1166
-971
-811
-681
-671
-941
-1353
-1713
-1997
-2119
-1928
-1596
-1302
-1087
-1046
-1308
-1657
-1946
-2146
-2155
-1902
-1589
-1331
-1126
-1091
-1325
-1647
-1904
-2077
-2145
-1923
-1625
-1356
-1141
-1066
-1288
-1605
-1879
-2097
-2177
-1950
-1629
-1341
-1124
-1039
-1256
-1596
-1915
-2151
-2196
-1957
-1604
-1312
-1095
-1045
-1277
-1625
-1911
-2131
-2159
-1897
-1579
-1322
-1125
-1084
-1320
-1629
-1911
-2099
-2129
-1905
-1604
-1344
-1146
-1070
-1279
-1579
-1861
-2097
-2164
-1967
-1634
-1344
-1108
-1041
-1256
-1589
-1899
-2124
-2197
-1974
-1618
-1298
-1082
-1030
-1285
-1628
-1918
-2116
-2159
-1919
-1566
-1309
-1140
-1086
-1311
-1638
-1897
-2084
-2134
-1913
-1612
-1331
-1137
-1069
-1267
-1577
-1855
-2096
-2171
-1977
-1661
-1334
-1098
-1017
-1243
-1577
-1897
-2137
-2207
-1966
-1607
-1296
-1085
-1031
-1279
-1586
-1816
-1956
-1936
-1623
-1221
-872
-609
-509
-697
-985
-1207
-1371
-1390
-1151
-802
-512
-311
-244
-432
-731
-1010
-1237
-1332
-1152
-864
-582
-376
-324
-589
-961
-1302
-1573
-1711
-1561
-1281
-1023
-884
-912
-1216
-1597
-1901
-2116
-2157
-1907
-1573
-1314
-1116
-1079
-1300
-1617
-1890
-2076
-2133
-1932
-1627
-1360
-1158
-1055
-1244
-1566
-1854
-2082
-2179
-1972
-1651
-1349
-1114
-1036
-1231
-1572
-1892
-2115
-2197
-1987
-1634
-1322
-1104
-1044
-1266
-1629
-1996
-2266
-2384
-2222
-1957
-1744
-1589
-1299
-1014
-725
-356
109
688
1541
2513
3451
4307
5031
5407
5017
3991
2803
1664
765
-12
-797
-1644
-2639
-3946
-5381
-6702
-7251
-6961
-6106
-5053
-4047
-3123
-2343
-1877
-1801
-1957
-2109
-2171
-1940
-1592
-1312
-1137
-1067
-1262
-1582
-1853
-2045
-2107
-1902
-1608
-1329
-1097
-986
-1166
-1461
-1756
-1973
-2065
-1851
-1507
-1202
-958
-836
-1021
-1339
-1642
-1857
-1936
-1712
-1327
-997
-761
-664
-867
-1199
-1486
-1674
-1713
-1454
-1102
-792
-571
-483
-664
-964
-1221
-1387
-1450
-1241
-931
-621
-415
-294
-453
-728
-991
-1196
-1283
-1072
-712
-390
-129
9
-181
-514
-816
-1014
-1087
-869
-486
-106
156
271
107
-204
-487
-643
-634
-341
28
373
638
765
625
355
114
-44
-99
143
484
789
1044
1151
968
649
341
98
-40
123
409
693
854
909
633
223
-154
-454
-636
-502
-284
-81
-13
-74
-430
-909
-1347
-1660
-1811
-1633
-1377
-1122
-978
-965
-1217
-1558
-1843
-2041
-2144
-1961
-1652
-1369
-1174
-1065
-1219
-1511
-1824
-2075
-2189
-2001
-1679
-1363
-1136
-1011
-1186
-1536
-1857
-2099
-2206
-1997
-1648
-1322
-1106
-1031
-1237
-1577
-1887
-2087
-2161
-1946
-1628
-1327
-1136
-1065
-1258
-1574
-1852
-2035
-2130
-1952
-1662
-1381
-1163
-1054
-1219
-1517
-1811
-2066
-2186
-2009
-1682
-1356
-1124
-1009
-1207
-1535
-1854
-2097
-2206
-2002
-1649
-1313
-1092
-1025
-1230
-1567
-1877
-2083
-2161
-1959
-1624
-1328
-1145
-1062
-1257
-1567
-1841
-2019
-2132
-1966
-1659
-1354
-1149
-1050
-1222
-1505
-1817
-2059
-2181
-1999
-1682
-1371
-1137
-1015
-1181
-1530
-1850
-2078
-2194
-2006
-1651
-1322
-1104
-1027
-1226
-1568
-1878
-2089
-2152
-1947
-1634
-1334
-1146
-1074
-1262
-1561
-1840
-2035
-2136
-1971
-1642
-1304
-1012
-822
-917
-1129
-1366
-1533
-1619
-1411
-1061
-710
-437
-262
-403
-712
-1014
-1232
-1359
-1160
-830
-487
-274
-172
-383
-751
-1114
-1351
-1468
-1303
-1015
-761
-608
-579
-839
-1209
-1567
-1827
-2002
-1897
-1647
-1367
-1159
-1031
-1199
-1495
-1796
-2044
-2167
-2009
-1704
-1371
-1120
-991
-1164
-1516
-1852
-2074
-2205
-2025
-1676
-1339
-1109
-999
-1215
-1537
-1844
-2057
-2154
-1936
-1624
-1347
-1159
-1051
-1244
-1547
-1829
-2023
-2137
-1976
-1696
-1469
-1319
-1255
-1483
-1855
-2237
-2486
-2388
-1723
-806
123
1013
1809
2293
2628
2973
3388
3896
4651
4916
4504
3768
2824
1545
110
-1299
-2586
-3761
-4642
-5414
-6145
-6296
-5822
-5385
-5004
-4565
-4046
-3444
-2586
-1870
-1455
-1188
-1041
-1196
-1499
-1795
-2024
-2177
-2017
-1716
-1376
-1134
-976
-1132
-1466
-1775
-1998
-2114
-1939
-1587
-1232
-1002
-892
-1084
-1418
-1705
-1912
-1993
-1775
-1432
-1127
-907
-782
-926
-1216
-1497
-1682
-1783
-1608
-1292
-994
-748
-581
-709
-981
-1255
-1481
-1600
-1409
-1080
-736
-478
-312
-454
-762
-1084
-1312
-1439
-1235
-858
-504
-253
-124
-276
-577
-872
-1055
-1146
-954
-611
-300
-84
41
-86
-362
-606
-758
-836
-649
-319
19
280
484
398
172
-92
-247
-339
-139
213
590
880
1059
940
649
343
143
5
171
482
812
1027
1138
937
580
224
-60
-244
-126
136
369
492
546
274
-162
-584
-914
-1192
-1172
-1015
-852
-766
-677
-853
-1204
-1571
-1869
-2077
-1982
-1701
-1377
-1140
-991
-1156
-1481
-1822
-2060
-2204
-2022
-1678
-1347
-1122
-1004
-1181
-1504
-1834
-2057
-2169
-1988
-1659
-1366
-1165
-1041
-1214
-1506
-1797
-2008
-2136
-1999
-1702
-1405
-1181
-1037
-1162
-1461
-1773
-1994
-2161
-2034
-1734
-1397
-1141
-996
-1151
-1474
-1816
-2048
-2196
-2031
-1693
-1352
-1123
-1014
-1190
-1520
-1836
-2052
-2166
-1977
-1663
-1362
-1184
-1045
-1207
-1507
-1794
-1996
-2126
-1983
-1696
-1409
-1206
-1054
-1170
-1450
-1767
-2009
-2167
-2028
-1727
-1406
-1159
-989
-1138
-1464
-1821
-2057
-2204
-2037
-1686
-1351
-1119
-1011
-1174
-1506
-1828
-2030
-2149
-1985
-1677
-1373
-1158
-1041
-1195
-1499
-1796
-2003
-2139
-1997
-1689
-1393
-1194
-1047
-1157
-1451
-1756
-2003
-2162
-2035
-1729
-1399
-1144
-995
-1136
-1427
-1709
-1867
-1962
-1744
-1333
-933
-638
-452
-575
-856
-1156
-1344
-1416
-1204
-861
-546
-336
-200
-359
-667
-958
-1152
-1281
-1152
-896
-648
-476
-346
-499
-816
-1167
-1441
-1678
-1620
-1401
-1138
-951
-859
-1081
-1432
-1774
-2024
-2188
-2040
-1704
-1356
-1142
-1004
-1155
-1482
-1819
-2044
-2160
-1994
-1677
-1362
-1162
-1039
-1194
-1494
-1794
-1991
-2135
-2011
-1716
-1422
-1195
-1034
-1147
-1434
-1750
-1988
-2153
-2044
-1745
-1411
-1167
-983
-1121
-1479
-1870
-2183
-2403
-2317
-2051
-1785
-1604
-1247
-889
-607
-298
119
651
1463
2453
3425
4278
5064
5491
5124
4082
2908
1712
749
-56
-833
-1701
-2616
-3802
-5190
-6534
-7131
-6952
-6214
-5224
-4171
-3187
-2307
-1758
-1663
-1864
-2053
-2186
-2039
-1709
-1358
-1141
-1015
-1152
-1459
-1801
-2019
-2119
-1960
-1637
-1334
-1121
-958
-1099
-1391
-1666
-1872
-2027
-1897
-1605
-1286
-1037
-853
-944
-1209
-1524
-1755
-1901
-1756
-1436
-1094
-827
-620
-736
-1039
-1373
-1592
-1731
-1573
-1210
-845
-595
-424
-551
-841
-1157
-1364
-1480
-1303
-981
-647
-422
-262
-391
-661
-919
-1106
-1235
-1084
-790
-456
-209
-32
-129
-379
-682
-915
-1061
-913
-591
-227
65
291
219
-60
-356
-542
-659
-470
-93
328
621
828
749
486
181
-12
-111
84
434
774
1009
1169
1023
698
399
183
13
112
361
626
789
883
720
376
-6
-316
-580
-558
-386
-212
-101
-47
-301
-752
-1232
-1571
-1804
-1742
-1478
-1166
-991
-906
-1101
-1454
-1774
-2004
-2156
-2012
-1701
-1386
-1174
-1023
-1164
-1452
-1763
-1967
-2119
-2007
-1730
-1431
-1213
-1051
-1137
-1403
-1712
-1967
-2149
-2060
-1768
-1429
-1180
-992
-1104
-1418
-1775
-2024
-2191
-2052
-1725
-1377
-1154
-1002
-1134
-1447
-1791
-2025
-2147
-2006
-1709
-1404
-1189
-1034
-1156
-1444
-1745
-1968
-2141
-2038
-1738
-1430
-1215
-1051
-1124
-1394
-1730
-1981
-2176
-2064
-1759
-1431
-1181
-989
-1103
-1416
-1767
-2019
-2183
-2061
-1736
-1381
-1166
-1013
-1134
-1448
-1782
-2010
-2161
-2012
-1712
-1397
-1183
-1027
-1157
-1449
-1747
-1966
-2134
-2048
-1753
-1427
-1216
-1034
-1109
-1375
-1710
-1984
-2161
-2057
-1772
-1439
-1178
-992
-1094
-1417
-1766
-2001
-2171
-2056
-1718
-1382
-1166
-994
-1119
-1444
-1779
-2015
-2151
-2015
-1689
-1308
-1035
-818
-875
-1089
-1310
-1446
-1551
-1453
-1134
-774
-512
-301
-354
-576
-886
-1132
-1325
-1234
-948
-604
-341
-163
-274
-637
-999
-1266
-1492
-1409
-1117
-811
-614
-528
-706
-1097
-1502
-1793
-2027
-1965
-1704
-1401
-1190
-1030
-1149
-1445
-1746
-1948
-2122
-2043
-1774
-1444
-1207
-1042
-1126
-1388
-1707
-1967
-2167
-2088
-1787
-1449
-1184
-986
-1072
-1389
-1744
-1997
-2169
-2066
-1762
-1409
-1157
-1000
-1125
-1447
-1772
-1989
-2139
-2033
-1757
-1486
-1345
-1252
-1424
-1785
-2167
-2414
-2366
-1771
-897
46
924
1743
2328
2706
3057
3479
3946
4618
4853
4436
3718
2879
1700
296
-1144
-2489
-3752
-4731
-5485
-6152
-6293
-5786
-5291
-4922
-4541
-4058
-3474
-2652
-1925
-1479
-1227
-1044
-1141
-1427
-1736
-1945
-2115
-2041
-1772
-1443
-1202
-1004
-1064
-1331
-1649
-1883
-2081
-1996
-1717
-1371
-1087
-871
-968
-1254
-1579
-1811
-1998
-1888
-1552
-1170
-917
-729
-821
-1119
-1432
-1657
-1787
-1656
-1336
-1011
-784
-592
-662
-924
-1189
-1375
-1544
-1439
-1146
-809
-552
-341
-396
-643
-957
-1200
-1376
-1303
-993
-614
-322
-96
-149
-420
-760
-999
-1150
-1051
-734
-362
-86
90
14
-251
-542
-734
-837
-698
-369
-9
264
496
461
242
-14
-167
-289
-164
167
526
799
1002
980
768
453
246
52
106
368
682
931
1136
1066
724
341
26
-241
-232
21
294
475
578
376
-46
-511
-891
-1182
-1211
-1051
-881
-767
-681
-818
-1142
-1514
-1785
-2007
-1997
-1769
-1472
-1243
-1032
-1083
-1357
-1676
-1921
-2137
-2084
-1800
-1472
-1210
-1006
-1074
-1369
-1711
-1966
-2164
-2088
-1781
-1434
-1187
-1012
-1104
-1402
-1725
-1961
-2124
-2039
-1750
-1424
-1209
-1044
-1122
-1392
-1697
-1909
-2107
-2057
-1787
-1477
-1249
-1056
-1093
-1347
-1681
-1937
-2145
-2102
-1816
-1462
-1193
-998
-1053
-1346
-1701
-1956
-2157
-2096
-1787
-1432
-1182
-1009
-1072
-1370
-1729
-1967
-2131
-2050
-1771
-1450
-1220
-1047
-1116
-1378
-1685
-1920
-2113
-2059
-1801
-1488
-1237
-1044
-1079
-1345
-1672
-1940
-2145
-2097
-1819
-1489
-1210
-1001
-1039
-1334
-1698
-1969
-2164
-2093
-1801
-1433
-1182
-1005
-1083
-1391
-1712
-1958
-2125
-2056
-1760
-1441
-1220
-1061
-1125
-1388
-1694
-1933
-2101
-2060
-1801
-1495
-1263
-1064
-1074
-1297
-1561
-1764
-1911
-1801
-1462
-1049
-703
-451
-461
-709
-1035
-1259
-1439
-1335
-986
-615
-352
-173
-251
-548
-890
-1129
-1283
-1218
-974
-686
-491
-362
-453
-746
-1087
-1366
-1622
-1646
-1472
-1222
-1042
-909
-1011
-1292
-1641
-1926
-2126
-2092
-1841
-1488
-1220
-1003
-1034
-1326
-1681
-1952
-2153
-2105
-1803
-1447
-1193
-1008
-1082
-1380
-1717
-1949
-2120
-2051
-1784
-1479
-1240
-1047
-1099
-1370
-1690
-1909
-2086
-2071
-1822
-1503
-1266
-1055
-1076
-1346
-1710
-2051
-2336
-2402
-2196
-1919
-1684
-1254
-794
-454
-177
190
640
1324
2269
3281
4209
5062
5621
5302
4210
2964
1744
728
-81
-846
-1708
-2625
-3745
-5072
-6390
-7017
-6881
-6267
-5327
-4302
-3332
-2408
-1707
-1529
-1707
-1925
-2147
-2126
-1861
-1506
-1223
-1017
-1044
-1309
-1654
-1920
-2126
-2071
-1767
-1408
-1131
-939
-990
-1267
-1602
-1837
-2011
-1957
-1661
-1328
-1070
-876
-894
-1143
-1439
-1636
-1815
-1792
-1542
-1194
-937
-721
-692
-909
-1214
-1471
-1674
-1647
-1345
-988
-686
-432
-420
-679
-1021
-1282
-1469
-1414
-1110
-739
-465
-261
-282
-518
-834
-1076
-1227
-1156
-855
-507
-254
-61
-61
-294
-598
-826
-989
-952
-665
-312
-22
216
279
88
-197
-433
-599
-531
-220
176
514
804
868
642
331
79
-96
-53
278
671
981
1178
1135
864
489
197
4
22
274
546
748
861
771
444
76
-232
-497
-584
-465
-285
-182
-126
-245
-597
-1057
-1460
-1739
-1812
-1626
-1324
-1088
-914
-972
-1272
-1642
-1929
-2137
-2131
-1844
-1464
-1212
-1033
-1061
-1325
-1672
-1936
-2095
-2069
-1819
-1497
-1254
-1066
-1080
-1322
-1639
-1891
-2082
-2084
-1841
-1537
-1277
-1082
-1065
-1291
-1608
-1875
-2097
-2123
-1897
-1540
-1239
-1024
-1017
-1282
-1641
-1926
-2132
-2126
-1849
-1485
-1221
-1027
-1052
-1322
-1660
-1918
-2100
-2079
-1821
-1506
-1255
-1071
-1073
-1317
-1624
-1856
-2062
-2075
-1861
-1550
-1279
-1072
-1051
-1263
-1592
-1892
-2106
-2117
-1871
-1540
-1251
-1012
-1002
-1271
-1631
-1911
-2127
-2122
-1859
-1500
-1243
-1044
-1036
-1314
-1651
-1897
-2090
-2082
-1826
-1512
-1254
-1076
-1082
-1312
-1611
-1868
-2082
-2096
-1861
-1543
-1282
-1084
-1030
-1264
-1601
-1879
-2099
-2138
-1892
-1552
-1258
-1022
-1001
-1267
-1627
-1899
-2104
-2123
-1834
-1415
-1058
-807
-744
-940
-1208
-1407
-1528
-1482
-1192
-833
-546
-326
-296
-502
-774
-1032
-1229
-1257
-1046
-723
-446
-235
-198
-464
-817
-1134
-1403
-1465
-1281
-979
-715
-553
-596
-929
-1336
-1697
-1979
-2061
-1857
-1502
-1237
-1043
-1024
-1282
-1637
-1908
-2080
-2087
-1836
-1512
-1264
-1083
-1062
-1301
-1594
-1846
-2063
-2091
-1863
-1556
-1291
-1069
-1037
-1249
-1565
-1861
-2082
-2132
-1906
-1549
-1258
-1032
-988
-1233
-1593
-1896
-2113
-2142
-1914
-1599
-1377
-1251
-1326
-1644
-2046
-2355
-2333
-1845
-1007
-44
865
1712
2358
2784
3128
3547
4013
4576
4768
4370
3664
2808
1784
488
-914
-2299
-3627
-4780
-5640
-6295
-6369
-5810
-5182
-4766
-4413
-3991
-3475
-2783
-2091
-1586
-1254
-1057
-1036
-1284
-1627
-1897
-2064
-2084
-1858
-1529
-1269
-1082
-1021
-1230
-1524
-1769
-1962
-2017
-1819
-1494
-1211
-985
-917
-1083
-1392
-1684
-1900
-1951
-1716
-1354
-1027
-782
-709
-929
-1268
-1549
-1747
-1772
-1496
-1132
-815
-603
-544
-771
-1077
-1338
-1492
-1491
-1239
-907
-606
-386
-342
-539
-832
-1081
-1281
-1326
-1086
-736
-424
-202
-106
-257
-550
-847
-1070
-1129
-887
-534
-200
59
144
-71
-374
-623
-794
-824
-545
-130
214
478
575
388
103
-136
-254
-217
65
434
736
954
1046
860
581
356
166
86
298
589
823
1017
1093
883
527
151
-149
-286
-146
121
371
541
518
153
-321
-784
-1139
-1329
-1241
-1002
-799
-688
-720
-999
-1383
-1719
-1950
-2053
-1869
-1555
-1312
-1089
-1020
-1238
-1549
-1826
-2043
-2122
-1911
-1604
-1317
-1112
-1009
-1193
-1526
-1829
-2046
-2145
-1961
-1609
-1276
-1061
-987
-1227
-1556
-1866
-2076
-2139
-1893
-1546
-1258
-1071
-1023
-1254
-1580
-1870
-2063
-2097
-1886
-1576
-1304
-1103
-1035
-1234
-1537
-1808
-2018
-2113
-1916
-1627
-1331
-1103
-1009
-1199
-1514
-1812
-2056
-2149
-1950
-1616
-1297
-1057
-962
-1186
-1539
-1858
-2086
-2156
-1909
-1554
-1267
-1074
-1006
-1230
-1577
-1867
-2034
-2094
-1881
-1577
-1307
-1107
-1032
-1238
-1526
-1804
-2025
-2119
-1936
-1627
-1339
-1099
-992
-1183
-1509
-1820
-2049
-2152
-1961
-1614
-1292
-1064
-965
-1181
-1539
-1859
-2078
-2142
-1917
-1572
-1283
-1086
-1009
-1231
-1558
-1836
-2024
-2100
-1892
-1581
-1312
-1111
-1017
-1188
-1436
-1658
-1791
-1826
-1560
-1181
-841
-581
-409
-537
-833
-1109
-1294
-1368
-1152
-824
-494
-247
-131
-349
-687
-1017
-1250
-1342
-1146
-819
-533
-383
-341
-594
-961
-1304
-1567
-1687
-1551
-1315
-1108
-977
-954
-1207
-1523
-1789
-2004
-2107
-1934
-1629
-1340
-1116
-1008
-1174
-1496
-1817
-2047
-2157
-1967
-1640
-1316
-1074
-961
-1177
-1529
-1838
-2056
-2159
-1945
-1596
-1296
-1099
-1004
-1216
-1536
-1824
-2022
-2099
-1911
-1614
-1326
-1112
-1015
-1229
-1584
-1935
-2209
-2384
-2291
-2061
-1815
-1382
-758
-319
-7
314
744
1271
2101
3071
4059
4966
5683
5483
4447
3151
1855
668
-209
-938
-1707
-2620
-3612
-4901
-6249
-6947
-6811
-6301
-5440
-4428
-3431
-2502
-1681
-1405
-1564
-1805
-2008
-2109
-1945
-1641
-1357
-1124
-996
-1161
-1471
-1787
-2015
-2127
-1944
-1602
-1252
-1015
-899
-1077
-1406
-1716
-1938
-2037
-1826
-1467
-1146
-927
-801
-985
-1306
-1590
-1761
-1827
-1618
-1290
-992
-781
-646
-802
-1076
-1344
-1537
-1634
-1440
-1115
-804
-541
-371
-507
-811
-1106
-1325
-1457
-1281
-932
-582
-322
-171
-337
-647
-951
-1150
-1241
-1028
-651
-297
-78
38
-135
-459
-751
-911
-991
-769
-425
-90
153
314
188
-58
-310
-461
-540
-341
29
399
677
883
785
515
235
39
-76
116
484
851
1098
1239
1044
681
340
88
-57
115
421
679
836
893
618
215
-171
-419
-610
-560
-401
-257
-193
-202
-483
-907
-1314
-1600
-1794
-1706
-1461
-1214
-1051
-942
-1112
-1436
-1756
-2016
-2173
-2023
-1695
-1347
-1094
-953
-1143
-1464
-1807
-2032
-2146
-1961
-1637
-1314
-1107
-991
-1177
-1500
-1802
-1999
-2112
-1944
-1649
-1367
-1146
-1027
-1181
-1452
-1752
-1973
-2120
-1981
-1691
-1390
-1147
-975
-1122
-1437
-1760
-1992
-2149
-2009
-1695
-1342
-1104
-951
-1118
-1457
-1791
-2032
-2166
-1976
-1641
-1323
-1126
-995
-1172
-1476
-1791
-1994
-2099
-1948
-1662
-1361
-1137
-1016
-1171
-1442
-1733
-1962
-2119
-1971
-1682
-1389
-1154
-994
-1111
-1416
-1751
-2014
-2152
-2004
-1686
-1342
-1089
-949
-1140
-1451
-1775
-2017
-2163
-1986
-1651
-1332
-1118
-984
-1161
-1464
-1794
-1987
-2107
-1957
-1657
-1362
-1172
-1032
-1156
-1438
-1740
-1949
-2116
-1997
-1702
-1389
-1162
-974
-1096
-1412
-1747
-1994
-2156
-1994
-1627
-1207
-903
-681
-752
-998
-1291
-1457
-1556
-1355
-988
-634
-392
-208
-353
-662
-971
-1152
-1276
-1136
-829
-537
-321
-192
-356
-661
-1006
-1253
-1468
-1378
-1122
-866
-697
-589
-756
-1124
-1532
-1856
-2089
-2014
-1711
-1372
-1101
-957
-1117
-1444
-1784
-2014
-2159
-1988
-1665
-1344
-1132
-987
-1151
-1452
-1766
-1967
-2122
-1980
-1684
-1392
-1184
-1022
-1145
-1436
-1724
-1937
-2108
-2002
-1716
-1407
-1179
-1003
-1095
-1406
-1746
-1977
-2158
-2079
-1812
-1529
-1339
-1237
-1442
-1846
-2240
-2273
-1942
-1192
-224
764
1634
2425
2930
3266
3596
4034
4509
4672
4283
3617
2780
1830
616
-745
-2130
-3456
-4720
-5709
-6471
-6547
-5977
-5191
-4605
-4213
-3851
-3372
-2834
-2266
-1805
-1409
-1142
-964
-1078
-1409
-1761
-2003
-2156
-1996
-1678
-1342
-1121
-961
-1087
-1389
-1692
-1884
-2025
-1894
-1597
-1283
-1065
-896
-988
-1266
-1547
-1766
-1914
-1804
-1501
-1167
-924
-709
-762
-1053
-1373
-1606
-1775
-1649
-1337
-976
-703
-502
-592
-880
-1198
-1417
-1562
-1405
-1061
-704
-469
-297
-407
-688
-987
-1191
-1318
-1176
-862
-524
-282
-99
-182
-441
-719
-921
-1079
-966
-669
-347
-102
120
85
-159
-452
-654
-807
-686
-339
60
377
618
565
323
32
-182
-291
-91
278
656
894
1078
1006
728
446
248
94
186
438
728
939
1078
961
662
308
9
-250
-242
-22
236
413
507
316
-116
-589
-986
-1329
-1377
-1219
-961
-756
-649
-811
-1177
-1576
-1882
-2097
-2011
-1712
-1390
-1157
-1004
-1107
-1401
-1726
-1924
-2082
-1982
-1709
-1425
-1205
-1024
-1106
-1370
-1677
-1893
-2085
-2021
-1766
-1453
-1207
-994
-1054
-1327
-1679
-1949
-2151
-2076
-1778
-1421
-1153
-964
-1075
-1397
-1731
-1969
-2137
-2032
-1726
-1384
-1163
-1012
-1098
-1403
-1726
-1931
-2105
-2001
-1722
-1421
-1193
-1037
-1102
-1376
-1679
-1911
-2107
-2041
-1776
-1454
-1192
-1001
-1054
-1341
-1679
-1940
-2139
-2068
-1784
-1437
-1157
-967
-1057
-1368
-1707
-1952
-2135
-2042
-1719
-1392
-1162
-1004
-1090
-1387
-1715
-1934
-2086
-2009
-1747
-1429
-1201
-1018
-1085
-1338
-1664
-1887
-2098
-2060
-1784
-1457
-1199
-977
-1038
-1319
-1674
-1927
-2126
-2067
-1782
-1420
-1150
-976
-1067
-1383
-1731
-1957
-2127
-2049
-1727
-1397
-1170
-992
-1050
-1291
-1545
-1704
-1798
-1666
-1329
-954
-669
-450
-454
-687
-976
-1182
-1321
-1243
-971
-637
-389
-171
-204
-477
-819
-1088
-1311
-1292
-1034
-719
-481
-315
-414
-745
-1145
-1467
-1713
-1714
-1471
-1193
-1036
-941
-1062
-1371
-1693
-1911
-2077
-2028
-1762
-1464
-1237
-1058
-1088
-1334
-1639
-1887
-2084
-2064
-1798
-1469
-1214
-1009
-1031
-1306
-1662
-1929
-2129
-2089
-1804
-1447
-1177
-971
-1036
-1337
-1696
-1945
-2134
-2066
-1772
-1426
-1179
-1013
-1105
-1431
-1831
-2121
-2352
-2382
-2186
-1916
-1496
-824
-269
121
458
871
1328
1997
2898
3879
4782
5603
5627
4681
3374
2035
745
-315
-1119
-1843
-2662
-3551
-4711
-6050
-6831
-6754
-6332
-5598
-4596
-3551
-2592
-1700
-1295
-1412
-1690
-1912
-2082
-2043
-1789
-1477
-1234
-1049
-1067
-1311
-1618
-1841
-2040
-2040
-1782
-1433
-1162
-950
-942
-1187
-1526
-1796
-2004
-1964
-1687
-1317
-1008
-791
-821
-1082
-1404
-1659
-1834
-1759
-1444
-1105
-833
-652
-668
-933
-1232
-1461
-1599
-1539
-1257
-911
-668
-436
-447
-662
-956
-1190
-1384
-1366
-1097
-759
-480
-234
-197
-431
-764
-1005
-1196
-1167
-871
-482
-188
31
21
-242
-581
-834
-1002
-928
-595
-211
83
314
330
99
-195
-392
-505
-421
-113
274
581
816
861
671
405
191
18
28
320
674
945
1149
1161
904
541
239
3
-19
203
504
727
883
791
434
28
-328
-627
-700
-554
-347
-236
-188
-356
-769
-1202
-1509
-1750
-1806
-1610
-1337
-1140
-1010
-1042
-1274
-1601
-1851
-2060
-2083
-1854
-1523
-1245
-1024
-997
-1239
-1590
-1891
-2099
-2114
-1859
-1506
-1222
-993
-998
-1281
-1629
-1912
-2115
-2092
-1809
-1472
-1214
-1047
-1046
-1296
-1643
-1881
-2054
-2059
-1826
-1527
-1284
-1073
-1041
-1262
-1582
-1849
-2071
-2105
-1868
-1543
-1257
-1027
-998
-1239
-1596
-1899
-2099
-2121
-1867
-1505
-1218
-1009
-1001
-1269
-1614
-1913
-2104
-2098
-1833
-1481
-1227
-1024
-1031
-1304
-1616
-1871
-2057
-2046
-1818
-1517
-1272
-1076
-1054
-1264
-1576
-1834
-2062
-2101
-1879
-1534
-1257
-1038
-979
-1232
-1569
-1869
-2096
-2126
-1876
-1526
-1216
-1001
-1006
-1281
-1638
-1909
-2114
-2099
-1836
-1499
-1238
-1051
-1026
-1283
-1622
-1880
-2044
-2064
-1848
-1535
-1267
-1062
-1033
-1263
-1570
-1845
-2074
-2099
-1811
-1408
-1068
-771
-638
-795
-1070
-1316
-1499
-1513
-1230
-830
-504
-246
-202
-442
-773
-1054
-1252
-1271
-1006
-670
-391
-224
-235
-521
-862
-1157
-1375
-1451
-1264
-1007
-794
-664
-683
-956
-1337
-1692
-1979
-2092
-1899
-1567
-1276
-1043
-975
-1210
-1553
-1863
-2099
-2145
-1911
-1549
-1238
-1023
-1001
-1244
-1581
-1894
-2111
-2112
-1840
-1511
-1242
-1052
-1031
-1248
-1582
-1852
-2032
-2071
-1865
-1550
-1277
-1082
-1024
-1226
-1536
-1823
-2047
-2124
-1973
-1727
-1494
-1335
-1331
-1619
-2025
-2131
-1876
-1334
-486
518
1481
2351
3054
3481
3786
4129
4529
4533
