
-62
-124
-179
-234
-302
-416
-499
-604
-729
-856
-972
-1087
-1169
-1266
-1312
-1339
-1349
-1385
-1404
-1427
-1474
-1517
-1559
-1590
-1584
-1537
-1479
-1461
-1454
-1474
-1525
-1562
-1602
-1596
-1549
-1503
-1481
-1496
-1501
-1527
-1550
-1557
-1556
-1562
-1539
-1537
-1531
-1531
-1527
-1516
-1524
-1541
-1540
-1578
-1584
-1564
-1551
-1509
-1476
-1454
-1474
-1540
-1590
-1613
-1601
-1567
-1525
-1478
-1455
-1494
-1551
-1587
-1616
-1621
-1576
-1528
-1497
-1502
-1514
-1536
-1584
-1582
-1573
-1564
-1541
-1549
-1539
-1533
-1534
-1534
-1549
-1538
-1556
-1598
-1612
-1582
-1551
-1534
-1491
-1482
-1521
-1554
-1591
-1637
-1626
-1578
-1533
-1486
-1462
-1511
-1568
-1599
-1628
-1629
-1582
-1521
-1517
-1532
-1529
-1551
-1582
-1592
-1576
-1572
-1574
-1564
-1554
-1557
-1548
-1537
-1539
-1546
-1583
-1602
-1606
-1616
-1579
-1537
-1504
-1495
-1524
-1567
-1607
-1635
-1616
-1549
-1452
-1355
-1264
-1222
-1191
-1161
-1125
-1069
-1000
-897
-856
-812
-794
-784
-784
-784
-782
-766
-742
-731
-731
-728
-722
-749
-774
-816
-865
-928
-974
-994
-1020
-1048
-1069
-1121
-1218
-1334
-1434
-1546
-1602
-1603
-1549
-1507
-1506
-1526
-1563
-1597
-1645
-1641
-1599
-1561
-1539
-1542
-1539
-1567
-1594
-1614
-1602
-1609
-1596
-1580
-1576
-1563
-1554
-1556
-1564
-1579
-1589
-1619
-1632
-1623
-1608
-1583
-1529
-1509
-1544
-1577
-1619
-1658
-1663
-1662
-1711
-1764
-1849
-1996
-2162
-2316
-2380
-2017
-1314
-517
274
1072
1881
2618
3368
4133
4926
5728
6403
6328
5683
4796
3865
2915
1964
1002
23
-974
-1972
-2931
-3762
-4011
-3820
-3537
-3254
-2942
-2616
-2284
-1919
-1707
-1591
-1527
-1510
-1546
-1589
-1635
-1657
-1652
-1630
-1576
-1538
-1532
-1534
-1538
-1564
-1566
-1563
-1548
-1537
-1511
-1485
-1475
-1445
-1442
-1441
-1433
-1437
-1466
-1481
-1459
-1421
-1391
-1334
-1313
-1331
-1356
-1366
-1392
-1363
-1314
-1244
-1179
-1136
-1149
-1195
-1220
-1223
-1195
-1149
-1091
-1054
-1029
-1017
-1042
-1045
-1024
-1010
-984
-951
-935
-928
-905
-882
-859
-826
-820
-817
-829
-826
-799
-754
-711
-654
-615
-599
-608
-619
-613
-574
-514
-437
-344
-279
-247
-257
-242
-214
-159
-88
6
70
108
129
123
112
129
141
155
177
170
162
139
122
94
83
44
-21
-101
-181
-213
-247
-252
-262
-341
-467
-611
-762
-914
-1042
-1115
-1155
-1187
-1229
-1297
-1387
-1486
-1550
-1586
-1592
-1569
-1554
-1559
-1567
-1596
-1627
-1636
-1621
-1614
-1604
-1602
-1606
-1594
-1591
-1591
-1589
-1581
-1590
-1632
-1665
-1650
-1610
-1579
-1544
-1536
-1562
-1606
-1642
-1679
-1673
-1637
-1582
-1536
-1515
-1554
-1605
-1638
-1655
-1665
-1634
-1590
-1561
-1554
-1566
-1581
-1590
-1613
-1612
-1627
-1615
-1608
-1596
-1604
-1599
-1578
-1576
-1597
-1610
-1647
-1662
-1643
-1626
-1579
-1550
-1542
-1564
-1600
-1634
-1672
-1679
-1637
-1588
-1539
-1517
-1546
-1598
-1637
-1664
-1669
-1634
-1589
-1569
-1569
-1570
-1580
-1612
-1635
-1623
-1617
-1612
-1603
-1607
-1589
-1584
-1587
-1569
-1576
-1602
-1651
-1656
-1645
-1623
-1586
-1546
-1544
-1570
-1612
-1651
-1683
-1681
-1635
-1583
-1549
-1546
-1547
-1587
-1637
-1663
-1667
-1630
-1587
-1566
-1570
-1586
-1585
-1591
-1551
-1462
-1379
-1314
-1230
-1156
-1090
-1009
-973
-939
-910
-894
-878
-869
-831
-809
-758
-729
-696
-713
-786
-813
-840
-870
-861
-847
-837
-849
-923
-989
-1061
-1142
-1216
-1250
-1262
-1309
-1382
-1459
-1548
-1609
-1634
-1622
-1630
-1632
-1624
-1611
-1603
-1577
-1569
-1570
-1575
-1615
-1640
-1662
-1646
-1607
-1583
-1545
-1514
-1558
-1607
-1646
-1687
-1691
-1635
-1584
-1536
-1504
-1552
-1614
-1649
-1676
-1687
-1649
-1589
-1549
-1571
-1574
-1585
-1657
-1761
-1882
-1981
-2085
-2207
-2302
-2331
-1963
-1307
-572
200
994
1778
2558
3343
4135
4941
5768
6438
6360
5659
4756
3776
2818
1877
995
90
-867
-1853
-2873
-3794
-4122
-3981
-3667
-3281
-2902
-2545
-2174
-1854
-1703
-1650
-1637
-1628
-1619
-1623
-1602
-1592
-1590
-1586
-1573
-1562
-1591
-1634
-1624
-1604
-1581
-1515
-1464
-1437
-1455
-1501
-1536
-1564
-1565
-1519
-1447
-1395
-1380
-1387
-1409
-1441
-1467
-1471
-1427
-1377
-1323
-1307
-1287
-1294
-1306
-1302
-1288
-1252
-1233
-1209
-1182
-1158
-1134
-1117
-1088
-1082
-1081
-1099
-1104
-1071
-1028
-981
-925
-885
-888
-922
-950
-971
-963
-899
-823
-774
-725
-729
-759
-792
-804
-804
-731
-634
-576
-548
-508
-490
-507
-477
-432
-375
-317
-259
-211
-162
-94
-48
8
27
49
32
39
67
112
165
234
246
214
149
89
24
-4
15
32
32
11
-77
-167
-249
-345
-412
-471
-520
-600
-702
-808
-945
-1081
-1199
-1281
-1333
-1370
-1419
-1444
-1492
-1519
-1545
-1569
-1577
-1622
-1633
-1659
-1652
-1636
-1602
-1553
-1524
-1540
-1602
-1652
-1680
-1678
-1659
-1609
-1540
-1533
-1546
-1601
-1639
-1673
-1679
-1648
-1596
-1568
-1582
-1581
-1592
-1612
-1622
-1622
-1622
-1636
-1617
-1604
-1600
-1606
-1588
-1597
-1591
-1608
-1644
-1656
-1653
-1646
-1606
-1557
-1529
-1573
-1606
-1641
-1672
-1683
-1639
-1586
-1550
-1536
-1539
-1579
-1626
-1649
-1664
-1639
-1604
-1569
-1572
-1579
-1596
-1608
-1633
-1630
-1615
-1606
-1605
-1614
-1604
-1595
-1587
-1581
-1587
-1597
-1632
-1663
-1654
-1636
-1609
-1554
-1543
-1569
-1612
-1644
-1686
-1695
-1648
-1607
-1544
-1536
-1548
-1593
-1642
-1665
-1668
-1632
-1596
-1571
-1576
-1583
-1599
-1606
-1624
-1635
-1629
-1631
-1622
-1597
-1606
-1595
-1582
-1564
-1568
-1592
-1645
-1655
-1624
-1544
-1434
-1316
-1232
-1193
-1161
-1145
-1127
-1087
-1014
-930
-843
-776
-786
-803
-819
-851
-856
-814
-779
-738
-738
-740
-770
-829
-874
-906
-954
-974
-1003
-1040
-1084
-1137
-1191
-1254
-1338
-1432
-1530
-1615
-1634
-1621
-1606
-1554
-1517
-1548
-1606
-1645
-1686
-1680
-1630
-1586
-1557
-1538
-1559
-1591
-1631
-1664
-1675
-1626
-1597
-1576
-1564
-1573
-1591
-1619
-1622
-1617
-1624
-1629
-1629
-1620
-1612
-1598
-1565
-1564
-1589
-1606
-1629
-1666
-1717
-1769
-1828
-1907
-1994
-2127
-2286
-2386
-2077
-1417
-639
196
1026
1843
2638
3388
4133
4878
5633
6302
6279
5672
4826
3903
2937
1957
971
9
-950
-1927
-2894
-3766
-4067
-3920
-3610
-3270
-2916
-2583
-2251
-1927
-1732
-1656
-1607
-1556
-1529
-1564
-1610
-1641
-1681
-1682
-1647
-1586
-1532
-1487
-1497
-1539
-1582
-1604
-1604
-1576
-1521
-1483
-1461
-1452
-1456
-1476
-1490
-1475
-1464
-1460
-1457
-1445
-1408
-1385
-1365
-1349
-1331
-1346
-1377
-1377
-1366
-1309
-1246
-1189
-1144
-1157
-1184
-1219
-1226
-1219
-1176
-1101
-1039
-996
-987
-1000
-1027
-1044
-1031
-992
-958
-917
-886
-872
-869
-875
-877
-855
-817
-806
-784
-759
-737
-694
-669
-641
-593
-594
-599
-586
-549
-479
-413
-321
-253
-203
-197
-200
-176
-121
-57
24
110
151
149
136
111
109
99
110
145
159
144
124
97
59
5
-34
-82
-137
-178
-220
-275
-335
-396
-471
-602
-726
-885
-1031
-1137
-1219
-1254
-1271
-1284
-1349
-1447
-1534
-1603
-1652
-1641
-1602
-1552
-1546
-1551
-1596
-1628
-1656
-1676
-1655
-1612
-1580
-1571
-1569
-1571
-1615
-1619
-1621
-1613
-1633
-1627
-1611
-1594
-1586
-1574
-1567
-1562
-1599
-1637
-1678
-1661
-1627
-1606
-1556
-1525
-1562
-1597
-1641
-1666
-1677
-1643
-1606
-1557
-1529
-1542
-1591
-1627
-1659
-1663
-1645
-1607
-1577
-1571
-1584
-1582
-1613
-1617
-1614
-1619
-1620
-1613
-1605
-1604
-1588
-1574
-1571
-1567
-1586
-1624
-1666
-1655
-1634
-1610
-1554
-1531
-1545
-1582
-1639
-1672
-1676
-1640
-1588
-1542
-1539
-1548
-1572
-1636
-1661
-1656
-1656
-1607
-1581
-1581
-1578
-1573
-1603
-1619
-1612
-1619
-1635
-1633
-1622
-1610
-1601
-1572
-1569
-1589
-1606
-1647
-1657
-1662
-1629
-1595
-1547
-1519
-1535
-1605
-1652
-1688
-1692
-1651
-1595
-1554
-1540
-1543
-1554
-1534
-1491
-1421
-1343
-1236
-1154
-1082
-1044
-992
-967
-959
-909
-879
-848
-822
-789
-776
-765
-747
-732
-749
-769
-802
-850
-880
-891
-884
-876
-879
-933
-1026
-1120
-1209
-1294
-1340
-1359
-1374
-1415
-1499
-1571
-1627
-1663
-1663
-1644
-1599
-1582
-1573
-1569
-1570
-1584
-1621
-1616
-1622
-1624
-1636
-1621
-1607
-1599
-1564
-1555
-1573
-1582
-1636
-1675
-1657
-1619
-1592
-1547
-1514
-1542
-1579
-1631
-1664
-1692
-1666
-1587
-1546
-1545
-1557
-1646
-1770
-1899
-2013
-2112
-2190
-2290
-2314
-1980
-1326
-599
159
951
1743
2524
3333
4141
4931
5716
6391
6339
5680
4805
3855
2896
1923
992
51
-853
-1785
-2791
-3723
-4106
-3993
-3712
-3341
-2938
-2534
-2164
-1824
-1677
-1659
-1666
-1662
-1644
-1628
-1597
-1578
-1573
-1582
-1594
-1604
-1585
-1568
-1582
-1576
-1562
-1545
-1530
-1491
-1474
-1473
-1483
-1521
-1550
-1541
-1501
-1445
-1398
-1364
-1369
-1421
-1447
-1464
-1478
-1432
-1361
-1294
-1255
-1240
-1264
-1287
-1296
-1290
-1257
-1198
-1166
-1150
-1132
-1114
-1106
-1119
-1106
-1082
-1069
-1049
-1031
-999
-970
-926
-899
-892
-891
-911
-924
-920
-886
-831
-754
-701
-710
-727
-754
-768
-765
-707
-622
-544
-494
-451
-454
-474
-464
-419
-356
-269
-202
-118
-64
-24
-25
-14
21
63
78
104
136
153
174
190
179
168
128
76
19
3
-9
-26
-17
-44
-104
-192
-313
-391
-484
-568
-639
-691
-779
-902
-1040
-1193
-1307
-1371
-1396
-1409
-1437
-1467
-1521
-1565
-1597
-1616
-1623
-1605
-1604
-1631
-1634
-1617
-1597
-1571
-1551
-1568
-1597
-1619
-1650
-1665
-1631
-1595
-1565
-1527
-1554
-1587
-1628
-1650
-1676
-1665
-1609
-1550
-1540
-1542
-1568
-1607
-1651
-1655
-1636
-1602
-1587
-1579
-1572
-1587
-1613
-1632
-1616
-1603
-1612
-1624
-1624
-1617
-1607
-1571
-1549
-1558
-1581
-1614
-1651
-1667
-1659
-1627
-1556
-1517
-1528
-1583
-1638
-1686
-1694
-1661
-1610
-1557
-1548
-1547
-1574
-1627
-1651
-1654
-1640
-1601
-1586
-1581
-1576
-1583
-1595
-1594
-1603
-1604
-1626
-1645
-1627
-1607
-1595
-1567
-1546
-1558
-1596
-1627
-1661
-1676
-1638
-1604
-1572
-1542
-1540
-1591
-1632
-1652
-1676
-1661
-1589
-1553
-1533
-1531
-1579
-1612
-1644
-1662
-1634
-1609
-1572
-1548
-1566
-1572
-1596
-1606
-1608
-1603
-1621
-1602
-1543
-1467
-1383
-1280
-1200
-1124
-1081
-1072
-1067
-1036
-986
-907
-822
-737
-736
-754
-800
-826
-839
-830
-776
-732
-709
-724
-792
-862
-919
-961
-991
-999
-1007
-1036
-1101
-1171
-1261
-1342
-1415
-1497
-1572
-1609
-1617
-1618
-1605
-1580
-1557
-1554
-1597
-1630
-1661
-1678
-1652
-1604
-1562
-1519
-1541
-1568
-1614
-1659
-1676
-1661
-1621
-1552
-1537
-1538
-1559
-1616
-1657
-1655
-1644
-1629
-1579
-1568
-1584
-1578
-1584
-1609
-1613
-1604
-1625
-1698
-1778
-1862
-1951
-2029
-2119
-2241
-2309
-2037
-1422
-668
123
941
1774
2599
3396
4164
4902
5641
6276
6255
5650
4849
3954
3018
2024
1022
21
-948
-1892
-2834
-3713
-4031
-3909
-3620
-3294
-2951
-2592
-2221
-1900
-1718
-1655
-1623
-1609
-1574
-1552
-1554
-1588
-1624
-1657
-1649
-1632
-1602
-1536
-1492
-1500
-1526
-1566
-1591
-1603
-1578
-1525
-1446
-1416
-1410
-1437
-1470
-1495
-1489
-1474
-1437
-1399
-1382
-1375
-1364
-1367
-1365
-1341
-1321
-1329
-1321
-1301
-1269
-1223
-1179
-1154
-1134
-1150
-1165
-1194
-1185
-1148
-1096
-1021
-967
-957
-974
-1007
-1036
-1026
-997
-928
-869
-833
-801
-811
-851
-868
-845
-816
-777
-725
-702
-684
-670
-648
-627
-595
-567
-541
-501
-461
-407
-343
-287
-217
-166
-143
-132
-114
-76
-30
49
111
168
183
171
156
134
104
89
119
167
163
143
101
38
-53
-145
-174
-180
-190
-244
-312
-387
-491
-615
-725
-844
-974
-1097
-1189
-1262
-1312
-1317
-1339
-1395
-1467
-1554
-1612
-1658
-1646
-1626
-1553
-1514
-1524
-1562
-1617
-1656
-1672
-1661
-1612
-1567
-1556
-1534
-1557
-1591
-1630
-1642
-1642
-1612
-1595
-1592
-1577
-1565
-1574
-1591
-1605
-1592
-1607
-1619
-1612
-1616
-1596
-1572
-1555
-1554
-1581
-1626
-1658
-1677
-1655
-1599
-1547
-1525
-1534
-1566
-1606
-1657
-1672
-1662
-1621
-1569
-1541
-1542
-1561
-1599
-1636
-1645
-1636
-1609
-1591
-1577
-1572
-1569
-1592
-1588
-1589
-1587
-1609
-1628
-1627
-1626
-1604
-1582
-1559
-1547
-1586
-1611
-1662
-1685
-1638
-1609
-1569
-1531
-1520
-1565
-1623
-1659
-1684
-1686
-1628
-1566
-1545
-1544
-1586
-1611
-1632
-1644
-1639
-1610
-1589
-1586
-1586
-1573
-1582
-1597
-1601
-1610
-1637
-1634
-1628
-1624
-1612
-1575
-1551
-1550
-1579
-1621
-1654
-1668
-1655
-1622
-1561
-1504
-1490
-1454
-1447
-1417
-1378
-1299
-1173
-1068
-992
-943
-937
-946
-945
-916
-876
-814
-759
-741
-753
-759
-761
-766
-766
-768
-796
-846
-896
-916
-927
-923
-925
-969
-1064
-1168
-1257
-1337
-1381
-1414
-1443
-1470
-1519
-1574
-1624
-1648
-1679
-1687
-1638
-1573
-1539
-1540
-1553
-1601
-1639
-1644
-1637
-1622
-1603
-1576
-1574
-1587
-1604
-1604
-1608
-1611
-1625
-1645
-1634
-1617
-1592
-1557
-1538
-1553
-1593
-1632
-1661
-1670
-1639
-1614
-1560
-1526
-1577
-1712
-1867
-2008
-2133
-2234
-2303
-2302
-1959
-1316
-592
151
912
1679
2474
3291
4113
4929
5727
6407
6353
5654
4789
3882
2941
1974
1028
64
-878
-1817
-2761
-3649
-4028
-3950
-3714
-3387
-3012
-2611
-2199
-1819
-1622
-1589
-1639
-1654
-1661
-1672
-1622
-1565
-1546
-1554
-1552
-1579
-1612
-1615
-1604
-1581
-1548
-1529
-1507
-1487
-1512
-1524
-1502
-1490
-1499
-1499
-1507
-1483
-1472
-1416
-1369
-1372
-1396
-1415
-1442
-1454
-1414
-1354
-1289
-1241
-1214
-1227
-1255
-1286
-1303
-1274
-1207
-1130
-1084
-1071
-1076
-1096
-1098
-1106
-1083
-1042
-1002
-974
-949
-931
-929
-915
-891
-891
-894
-892
-867
-835
-796
-759
-710
-691
-707
-727
-750
-731
-661
-589
-514
-449
-398
-399
-407
-402
-389
-327
-230
-131
-31
17
19
10
13
25
67
113
163
184
208
193
179
152
128
103
62
26
13
-45
-72
-89
-109
-162
-256
-343
-463
-574
-662
-724
-799
-877
-981
-1134
-1264
-1351
-1432
-1481
-1479
-1469
-1475
-1519
-1546
-1601
-1635
-1641
-1637
-1618
-1591
-1573
-1578
-1582
-1580
-1582
-1580
-1591
-1615
-1629
-1636
-1632
-1625
-1592
-1564
-1539
-1557
-1604
-1644
-1682
-1681
-1624
-1570
-1524
-1521
-1553
-1592
-1633
-1652
-1651
-1629
-1581
-1556
-1549
-1568
-1603
-1624
-1651
-1631
-1614
-1595
-1590
-1597
-1586
-1581
-1602
-1586
-1579
-1594
-1637
-1638
-1618
-1600
-1569
-1548
-1545
-1568
-1614
-1656
-1677
-1671
-1641
-1580
-1540
-1527
-1561
-1592
-1643
-1677
-1659
-1615
-1574
-1544
-1537
-1557
-1598
-1629
-1642
-1630
-1619
-1581
-1576
-1581
-1590
-1576
-1580
-1581
-1591
-1622
-1646
-1634
-1623
-1612
-1574
-1542
-1548
-1566
-1604
-1657
-1682
-1657
-1621
-1572
-1526
-1524
-1551
-1606
-1656
-1666
-1669
-1621
-1571
-1546
-1549
-1560
-1594
-1619
-1624
-1631
-1571
-1493
-1428
-1364
-1302
-1217
-1152
-1087
-1040
-1015
-1011
-971
-927
-878
-811
-745
-712
-737
-787
-818
-844
-826
-797
-761
-721
-737
-822
-897
-967
-1026
-1057
-1051
-1045
-1091
-1148
-1225
-1332
-1429
-1519
-1570
-1584
-1593
-1589
-1583
-1594
-1581
-1586
-1584
-1584
-1609
-1631
-1633
-1631
-1617
-1591
-1560
-1531
-1539
-1596
-1654
-1664
-1662
-1622
-1565
-1538
-1526
-1561
-1605
-1640
-1666
-1661
-1627
-1582
-1556
-1570
-1574
-1602
-1634
-1641
-1629
-1672
-1742
-1833
-1929
-2050
-2159
-2259
-2320
-2013
-1394
-666
128
909
1702
2521
3329
4138
4921
5694
6339
6293
5645
4794
3923
3036
2096
1117
106
-904
-1902
-2869
-3718
-4031
-3888
-3616
-3284
-2955
-2608
-2274
-1926
-1710
-1633
-1616
-1597
-1579
-1589
-1580
-1569
-1577
-1602
-1631
-1626
-1601
-1576
-1539
-1504
-1482
-1508
-1527
-1572
-1581
-1549
-1522
-1472
-1404
-1377
-1414
-1463
-1489
-1513
-1491
-1433
-1382
-1353
-1349
-1349
-1344
-1357
-1345
-1328
-1302
-1281
-1254
-1216
-1196
-1174
-1168
-1161
-1150
-1142
-1144
-1148
-1109
-1073
-1030
-982
-939
-962
-974
-996
-1014
-999
-939
-867
-796
-771
-791
-804
-839
-867
-832
-775
-731
-679
-633
-621
-614
-626
-597
-553
-509
-452
-403
-338
-297
-259
-211
-149
-103
-67
-54
-36
14
53
91
159
211
206
176
131
81
63
98
129
145
136
78
-2
-107
-179
-223
-262
-264
-280
-342
-479
-616
-735
-872
-987
-1091
-1175
-1231
-1298
-1342
-1385
-1432
-1461
-1507
-1590
-1629
-1657
-1639
-1612
-1570
-1531
-1536
-1567
-1624
-1651
-1679
-1656
-1616
-1571
-1537
-1534
-1558
-1605
-1641
-1661
-1668
-1629
-1576
-1557
-1549
-1551
-1588
-1639
-1633
-1631
-1622
-1602
-1598
-1601
-1590
-1582
-1584
-1588
-1594
-1600
-1644
-1643
-1637
-1614
-1567
-1541
-1536
-1559
-1592
-1645
-1679
-1659
-1616
-1565
-1530
-1529
-1559
-1604
-1643
-1671
-1682
-1649
-1600
-1545
-1541
-1562
-1585
-1616
-1636
-1629
-1631
-1600
-1592
-1587
-1574
-1586
-1599
-1589
-1587
-1613
-1641
-1650
-1632
-1606
-1579
-1539
-1541
-1593
-1616
-1645
-1673
-1659
-1618
-1567
-1539
-1521
-1542
-1597
-1626
-1662
-1667
-1624
-1571
-1551
-1543
-1557
-1583
-1621
-1639
-1623
-1629
-1608
-1611
-1601
-1587
-1573
-1584
-1592
-1596
-1612
-1643
-1646
-1626
-1613
-1575
-1501
-1437
-1394
-1381
-1352
-1316
-1247
-1122
-1018
-939
-901
-900
-901
-910
-902
-871
-819
-755
-716
-716
-717
-771
-803
-816
-815
-821
-846
-880
-913
-939
-966
-1011
-1054
-1119
-1213
-1314
-1399
-1437
-1482
-1530
-1532
-1529
-1552
-1602
-1632
-1683
-1687
-1619
-1560
-1525
-1531
-1561
-1598
-1636
-1652
-1654
-1637
-1578
-1528
-1540
-1568
-1600
-1616
-1640
-1631
-1611
-1596
-1598
-1599
-1587
-1577
-1586
-1577
-1591
-1606
-1644
-1635
-1636
-1612
-1576
-1595
-1669
-1797
-1941
-2097
-2233
-2333
-2354
-2006
-1324
-566
188
936
1698
2445
3209
4034
4871
5695
6416
6415
5764
4844
3863
2936
2000
1059
122
-839
-1804
-2778
-3675
-4029
-3912
-3672
-3381
-3028
-2653
-2262
-1896
-1641
-1567
-1564
-1594
-1640
-1676
-1657
-1632
-1586
-1546
-1511
-1524
-1573
-1607
-1621
-1626
-1579
-1528
-1484
-1472
-1486
-1496
-1516
-1526
-1513
-1492
-1461
-1454
-1445
-1426
-1397
-1406
-1392
-1374
-1392
-1404
-1393
-1376
-1339
-1286
-1228
-1197
-1194
-1231
-1254
-1269
-1249
-1193
-1138
-1071
-1032
-1047
-1071
-1099
-1119
-1090
-1048
-987
-936
-912
-901
-896
-903
-909
-899
-876
-864
-823
-781
-766
-756
-725
-714
-710
-699
-691
-673
-630
-569
-516
-435
-394
-370
-337
-320
-332
-299
-205
-80
10
58
80
54
34
43
58
116
179
225
218
207
176
119
69
61
44
23
-7
-37
-89
-142
-200
-247
-297
-386
-520
-664
-764
-858
-930
-1004
-1094
-1189
-1297
-1375
-1459
-1508
-1514
-1507
-1492
-1497
-1531
-1597
-1638
-1661
-1672
-1632
-1582
-1560
-1566
-1562
-1584
-1616
-1634
-1626
-1612
-1602
-1594
-1591
-1579
-1561
-1559
-1561
-1573
-1591
-1631
-1646
-1632
-1614
-1575
-1535
-1509
-1542
-1594
-1625
-1659
-1663
-1638
-1582
-1530
-1516
-1536
-1577
-1624
-1656
-1664
-1634
-1569
-1562
-1576
-1576
-1591
-1607
-1623
-1617
-1616
-1618
-1612
-1598
-1584
-1577
-1577
-1576
-1581
-1602
-1629
-1649
-1634
-1612
-1582
-1540
-1524
-1547
-1595
-1638
-1662
-1672
-1646
-1582
-1522
-1497
-1527
-1583
-1626
-1659
-1670
-1641
-1598
-1572
-1561
-1562
-1559
-1608
-1628
-1618
-1615
-1605
-1590
-1596
-1596
-1579
-1561
-1566
-1582
-1611
-1641
-1650
-1638
-1604
-1583
-1546
-1529
-1541
-1602
-1651
-1661
-1654
-1621
-1574
-1540
-1536
-1557
-1586
-1617
-1648
-1633
-1549
-1431
-1341
-1257
-1189
-1141
-1093
-1056
-1011
-976
-951
-917
-871
-831
-794
-748
-736
-737
-750
-784
-812
-806
-793
-789
-761
-772
-823
-895
-966
-1049
-1095
-1116
-1131
-1134
-1181
-1271
-1392
-1501
-1601
-1644
-1625
-1572
-1561
-1557
-1559
-1574
-1599
-1610
-1599
-1605
-1622
-1619
-1609
-1596
-1592
-1574
-1571
-1572
-1591
-1631
-1648
-1646
-1612
-1585
-1547
-1514
-1524
-1600
-1636
-1652
-1670
-1635
-1589
-1539
-1521
-1540
-1591
-1643
-1661
-1726
-1777
-1817
-1917
-2022
-2129
-2269
-2337
-2045
-1426
-699
93
905
1706
2522
3303
4069
4856
5656
6349
6343
5693
4859
3939
2996
2093
1151
181
-825
-1837
-2852
-3759
-4079
-3908
-3599
-3256
-2912
-2589
-2267
-1947
-1756
-1660
-1604
-1563
-1567
-1575
-1586
-1616
-1627
-1625
-1611
-1605
-1592
-1569
-1557
-1541
-1506
-1499
-1509
-1524
-1552
-1566
-1545
-1506
-1471
-1424
-1389
-1405
-1430
-1464
-1486
-1490
-1447
-1380
-1323
-1286
-1293
-1303
-1338
-1346
-1335
-1302
-1253
-1192
-1171
-1145
-1162
-1187
-1180
-1145
-1129
-1123
-1092
-1072
-1042
-1004
-981
-964
-955
-965
-981
-976
-952
-911
-862
-816
-761
-754
-766
-809
-824
-830
-786
-715
-640
-581
-561
-563
-582
-581
-548
-480
-390
-327
-252
-232
-197
-168
-142
-82
-24
-5
17
57
88
126
161
193
214
183
123
89
79
81
92
108
105
45
-43
-136
-221
-283
-320
-316
-349
-428
-546
-694
-862
-1012
-1129
-1214
-1239
-1266
-1298
-1348
-1406
-1489
-1542
-1574
-1587
-1610
-1621
-1584
-1589
-1567
-1549
-1564
-1566
-1592
-1640
-1665
-1639
-1614
-1581
-1558
-1528
-1541
-1574
-1626
-1661
-1661
-1648
-1599
-1549
-1526
-1553
-1593
-1618
-1639
-1646
-1637
-1595
-1561
-1556
-1557
-1576
-1592
-1620
-1602
-1598
-1610
-1621
-1624
-1603
-1585
-1562
-1559
-1566
-1596
-1644
-1652
-1643
-1619
-1588
-1559
-1532
-1541
-1589
-1637
-1671
-1674
-1634
-1601
-1546
-1530
-1538
-1566
-1613
-1644
-1657
-1641
-1597
-1555
-1568
-1575
-1567
-1607
-1621
-1620
-1594
-1604
-1609
-1605
-1604
-1596
-1561
-1561
-1575
-1587
-1614
-1649
-1649
-1636
-1592
-1532
-1507
-1533
-1587
-1633
-1667
-1674
-1645
-1589
-1559
-1535
-1548
-1571
-1613
-1646
-1643
-1639
-1593
-1571
-1571
-1562
-1562
-1581
-1621
-1614
-1609
-1615
-1607
-1610
-1584
-1536
-1465
-1398
-1337
-1298
-1275
-1226
-1159
-1089
-1017
-913
-852
-840
-851
-863
-861
-839
-814
-769
-716
-689
-696
-743
-784
-826
-880
-889
-877
-887
-904
-949
-994
-1070
-1154
-1220
-1272
-1346
-1411
-1484
-1544
-1561
-1560
-1561
-1561
-1600
-1648
-1669
-1652
-1631
-1586
-1554
-1521
-1533
-1571
-1616
-1654
-1675
-1642
-1595
-1540
-1522
-1535
-1585
-1634
-1646
-1656
-1634
-1601
-1574
-1557
-1548
-1567
-1581
-1603
-1607
-1619
-1621
-1619
-1609
-1592
-1640
-1691
-1773
-1885
-2035
-2185
-2326
-2386
-2080
-1408
-613
191
953
1714
2470
3227
3983
4783
5613
6381
6433
5809
4931
3973
2981
2007
1066
145
-786
-1741
-2713
-3638
-4039
-3954
-3672
-3327
-2987
-2630
-2255
-1898
-1691
-1599
-1552
-1568
-1586
-1624
-1641
-1643
-1625
-1589
-1537
-1509
-1531
-1554
-1581
-1614
-1616
-1588
-1527
-1463
-1437
-1430
-1460
-1501
-1520
-1522
-1495
-1446
-1414
-1395
-1390
-1403
-1412
-1427
-1418
-1391
-1368
-1356
-1339
-1310
-1293
-1249
-1212
-1208
-1222
-1232
-1239
-1217
-1190
-1127
-1059
-1011
-1011
-1026
-1069
-1086
-1104
-1048
-970
-910
-870
-855
-881
-910
-912
-896
-872
-808
-762
-746
-734
-712
-722
-741
-707
-665
-637
-602
-556
-506
-466
-422
-374
-346
-304
-284
-265
-207
-145
-55
41
98
112
84
88
61
70
128
164
206
229
224
174
101
38
11
-14
-6
-24
-76
-128
-176
-262
-341
-421
-500
-615
-745
-844
-949
-1051
-1137
-1217
-1256
-1319
-1414
-1496
-1542
-1557
-1572
-1535
-1507
-1540
-1585
-1616
-1646
-1666
-1655
-1609
-1551
-1536
-1534
-1577
-1611
-1653
-1650
-1628
-1599
-1579
-1561
-1571
-1584
-1586
-1596
-1607
-1590
-1611
-1631
-1614
-1600
-1597
-1571
-1554
-1547
-1565
-1607
-1657
-1655
-1616
-1594
-1556
-1522
-1518
-1569
-1616
-1647
-1664
-1641
-1586
-1552
-1540
-1529
-1564
-1593
-1639
-1644
-1637
-1606
-1562
-1562
-1577
-1569
-1592
-1603
-1601
-1592
-1612
-1606
-1602
-1598
-1601
-1585
-1552
-1559
-1576
-1621
-1654
-1655
-1637
-1604
-1547
-1503
-1524
-1574
-1606
-1651
-1674
-1650
-1612
-1564
-1536
-1542
-1577
-1618
-1655
-1649
-1631
-1596
-1582
-1557
-1560
-1578
-1607
-1627
-1612
-1611
-1616
-1624
-1631
-1614
-1589
-1560
-1553
-1562
-1585
-1628
-1664
-1646
-1634
-1603
-1559
-1525
-1541
-1581
-1612
-1618
-1596
-1501
-1376
-1261
-1175
-1107
-1081
-1067
-1050
-1030
-982
-900
-845
-796
-764
-745
-757
-760
-780
-784
-786
-784
-775
-786
-794
-813
-839
-887
-941
-992
-1067
-1130
-1162
-1194
-1231
-1264
-1339
-1449
-1561
-1630
-1667
-1655
-1608
-1565
-1539
-1532
-1570
-1615
-1648
-1652
-1634
-1604
-1583
-1570
-1581
-1571
-1591
-1618
-1612
-1615
-1611
-1606
-1609
-1607
-1591
-1564
-1546
-1546
-1572
-1609
-1660
-1657
-1627
-1591
-1557
-1514
-1522
-1572
-1624
-1699
-1823
-1907
-1951
-2022
-2113
-2211
-2302
-2077
-1493
-758
50
879
1686
2511
3288
4082
4849
5594
6303
6351
5736
4907
3984
3038
2089
1150
210
-759
-1750
-2754
-3704
-4116
-3989
-3667
-3284
-2909
-2555
-2223
-1917
-1756
-1719
-1674
-1613
-1544
-1522
-1531
-1554
-1597
-1642
-1647
-1636
-1596
-1547
-1542
-1536
-1523
-1536
-1533
-1536
-1524
-1526
-1523
-1509
-1492
-1466
-1430
-1401
-1412
-1433
-1450
-1482
-1467
-1444
-1397
-1349
-1284
-1277
-1294
-1314
-1347
-1354
-1305
-1251
-1186
-1132
-1117
-1126
-1161
-1192
-1169
-1136
-1086
-1048
-1016
-991
-978
-987
-973
-958
-932
-934
-927
-915
-892
-857
-807
-779
-770
-758
-788
-806
-787
-759
-699
-623
-548
-518
-535
-540
-542
-538
-471
-386
-277
-199
-139
-116
-94
-80
-67
-28
41
99
118
141
163
186
165
153
140
114
111
107
72
62
64
16
-35
-100
-182
-277
-336
-360
-392
-440
-517
-651
-787
-946
-1111
-1252
-1309
-1311
-1296
-1329
-1368
-1448
-1532
-1598
-1644
-1629
-1605
-1581
-1581
-1577
-1577
-1592
-1618
-1600
-1595
-1616
-1627
-1622
-1607
-1592
-1559
-1532
-1556
-1592
-1635
-1662
-1664
-1647
-1606
-1556
-1519
-1538
-1567
-1611
-1652
-1686
-1662
-1594
-1554
-1546
-1544
-1557
-1601
-1636
-1636
-1618
-1602
-1582
-1567
-1569
-1583
-1582
-1601
-1594
-1581
-1612
-1628
-1617
-1617
-1600
-1582
-1559
-1556
-1592
-1609
-1637
-1648
-1649
-1619
-1562
-1520
-1526
-1558
-1607
-1657
-1672
-1651
-1607
-1569
-1537
-1535
-1560
-1591
-1622
-1632
-1636
-1621
-1587
-1567
-1573
-1576
-1582
-1584
-1609
-1609
-1619
-1629
-1621
-1599
-1594
-1570
-1537
-1543
-1576
-1604
-1655
-1671
-1642
-1612
-1571
-1507
-1516
-1576
-1616
-1636
-1675
-1660
-1632
-1563
-1550
-1542
-1554
-1592
-1636
-1638
-1631
-1620
-1578
-1569
-1544
-1485
-1418
-1362
-1307
-1241
-1182
-1139
-1085
-1019
-966
-909
-857
-835
-811
-804
-830
-844
-819
-774
-734
-691
-678
-727
-796
-869
-922
-946
-926
-912
-922
-956
-1041
-1132
-1232
-1311
-1382
-1427
-1456
-1513
-1560
-1581
-1584
-1594
-1608
-1592
-1619
-1622
-1630
-1612
-1584
-1557
-1547
-1549
-1579
-1602
-1658
-1681
-1657
-1607
-1560
-1538
-1547
-1572
-1615
-1653
-1670
-1663
-1610
-1568
-1544
-1549
-1559
-1599
-1633
-1644
-1644
-1626
-1591
-1576
-1620
-1717
-1815
-1932
-2037
-2143
-2274
-2364
-2102
-1454
-696
93
901
1686
2469
3244
3996
4765
5554
6293
6389
5826
4985
4039
3060
2075
1061
99
-801
-1711
-2662
-3582
-4010
-3969
-3724
-3388
-3032
-2642
-2258
-1891
-1676
-1604
-1594
-1589
-1600
-1606
-1613
-1621
-1624
-1615
-1597
-1574
-1520
-1516
-1543
-1565
-1600
-1606
-1583
-1540
-1490
-1438
-1431
-1454
-1488
-1506
-1526
-1512
-1449
-1402
-1379
-1371
-1362
-1407
-1425
-1418
-1400
-1364
-1321
-1288
-1272
-1242
-1226
-1248
-1223
-1189
-1186
-1189
-1173
-1143
-1115
-1073
-1026
-1006
-1001
-1038
-1061
-1066
-1032
-984
-924
-841
-825
-849
-883
-902
-910
-881
-832
-747
-702
-685
-699
-716
-724
-711
-663
-599
-555
-519
-458
-425
-391
-367
-329
-274
-232
-182
-127
-73
-11
46
103
119
120
108
102
116
135
158
179
208
194
149
84
22
-40
-82
-90
-92
-104
-158
-221
-302
-411
-540
-643
-726
-807
-921
-1043
-1144
-1225
-1301
-1359
-1382
-1442
-1509
-1561
-1596
-1599
-1561
-1551
-1549
-1588
-1608
-1647
-1678
-1652
-1607
-1573
-1528
-1521
-1572
-1617
-1644
-1657
-1664
-1625
-1567
-1543
-1531
-1549
-1584
-1629
-1644
-1626
-1611
-1594
-1565
-1576
-1592
-1587
-1596
-1597
-1613
-1612
-1617
-1634
-1638
-1622
-1585
-1549
-1534
-1570
-1608
-1649
-1675
-1656
-1622
-1572
-1522
-1516
-1543
-1593
-1650
-1672
-1656
-1602
-1566
-1547
-1538
-1571
-1597
-1631
-1641
-1629
-1626
-1595
-1566
-1567
-1580
-1591
-1611
-1594
-1596
-1622
-1647
-1635
-1614
-1615
-1577
-1536
-1537
-1562
-1612
-1659
-1656
-1653
-1609
-1571
-1520
-1521
-1551
-1617
-1651
-1657
-1662
-1629
-1574
-1565
-1548
-1557
-1588
-1625
-1640
-1638
-1619
-1593
-1575
-1568
-1584
-1579
-1594
-1597
-1594
-1603
-1630
-1636
-1625
-1618
-1577
-1546
-1539
-1563
-1563
-1549
-1508
-1439
-1337
-1214
-1100
-1027
-1007