
-591
-994
-1145
-1125
-1074
-1017
-1022
-1107
-1182
-1224
-1288
-1305
-1315
-1354
-1399
-1439
-1467
-1513
-1529
-1519
-1516
-1506
-1512
-1499
-1491
-1476
-1451
-1457
-1466
-1482
-1510
-1506
-1477
-1438
-1386
-1338
-1322
-1354
-1400
-1425
-1436
-1426
-1359
-1292
-1248
-1232
-1258
-1306
-1338
-1331
-1305
-1261
-1200
-1164
-1144
-1127
-1139
-1142
-1149
-1136
-1138
-1122
-1109
-1097
-1072
-1031
-1001
-992
-992
-1008
-1027
-1022
-975
-932
-887
-835
-823
-846
-881
-912
-924
-894
-829
-743
-685
-666
-676
-678
-682
-679
-636
-553
-462
-394
-367
-319
-308
-328
-301
-270
-270
-252
-221
-201
-191
-158
-146
-168
-186
-224
-266
-281
-279
-282
-294
-284
-311
-392
-481
-570
-648
-710
-742
-766
-809
-886
-1009
-1146
-1264
-1326
-1358
-1363
-1342
-1379
-1418
-1447
-1503
-1539
-1547
-1545
-1546
-1550
-1544
-1531
-1519
-1510
-1492
-1501
-1517
-1525
-1562
-1583
-1586
-1544
-1499
-1444
-1456
-1494
-1535
-1579
-1615
-1597
-1540
-1479
-1458
-1467
-1486
-1529
-1552
-1572
-1572
-1549
-1508
-1483
-1484
-1479
-1500
-1526
-1535
-1540
-1549
-1539
-1532
-1532
-1511
-1505
-1471
-1472
-1502
-1537
-1576
-1574
-1546
-1519
-1483
-1434
-1432
-1471
-1522
-1561
-1592
-1582
-1538
-1480
-1449
-1442
-1471
-1505
-1535
-1573
-1569
-1530
-1501
-1487
-1476
-1474
-1495
-1516
-1534
-1536
-1531
-1514
-1521
-1528
-1507
-1489
-1465
-1461
-1486
-1509
-1546
-1562
-1552
-1532
-1487
-1445
-1438
-1462
-1514
-1546
-1589
-1581
-1534
-1475
-1439
-1425
-1452
-1485
-1535
-1555
-1548
-1513
-1464
-1457
-1474
-1467
-1501
-1519
-1503
-1507
-1514
-1502
-1437
-1369
-1310
-1212
-1122
-1046
-989
-966
-969
-943
-895
-822
-740
-669
-627
-631
-662
-706
-740
-739
-683
-629
-600
-607
-641
-714
-787
-836
-877
-879
-879
-890
-956
-1037
-1115
-1197
-1282
-1335
-1409
-1476
-1501
-1494
-1486
-1452
-1439
-1454
-1469
-1497
-1528
-1549
-1546
-1511
-1471
-1423
-1413
-1452
-1494
-1529
-1566
-1564
-1511
-1472
-1425
-1429
-1440
-1473
-1522
-1535
-1542
-1521
-1474
-1461
-1459
-1456
-1478
-1485
-1495
-1496
-1506
-1524
-1633
-1769
-1881
-2009
-2121
-2253
-2420
-2402
-1951
-1273
-514
251
1035
1844
2627
3375
4100
4839
5567
5969
5704
5122
4419
3659
2857
2019
1179
369
-395
-1165
-1925
-2494
-2622
-2518
-2397
-2256
-2069
-1894
-1722
-1588
-1529
-1501
-1497
-1455
-1438
-1456
-1459
-1479
-1538
-1543
-1527
-1477
-1437
-1384
-1368
-1392
-1413
-1446
-1485
-1476
-1422
-1339
-1311
-1310
-1315
-1338
-1357
-1371
-1368
-1328
-1281
-1267
-1267
-1249
-1254
-1260
-1263
-1246
-1244
-1240
-1243
-1226
-1182
-1137
-1104
-1093
-1091
-1093
-1119
-1131
-1103
-1054
-999
-936
-931
-970
-998
-1026
-1053
-1025
-962
-892
-830
-810
-814
-839
-871
-892
-871
-825
-799
-771
-757
-757
-747
-731
-706
-687
-671
-657
-628
-577
-548
-486
-417
-382
-351
-332
-316
-316
-287
-247
-181
-103
-86
-96
-119
-150
-189
-189
-159
-121
-87
-96
-108
-146
-223
-304
-340
-360
-367
-384
-426
-480
-569
-663
-755
-844
-922
-1020
-1107
-1171
-1213
-1226
-1252
-1282
-1309
-1389
-1461
-1514
-1504
-1477
-1434
-1403
-1386
-1412
-1474
-1507
-1536
-1544
-1514
-1457
-1407
-1404
-1409
-1447
-1495
-1523
-1522
-1497
-1478
-1462
-1444
-1448
-1451
-1475
-1495
-1469
-1469
-1499
-1501
-1494
-1474
-1459
-1434
-1412
-1426
-1464
-1506
-1542
-1522
-1489
-1445
-1407
-1380
-1406
-1462
-1519
-1542
-1542
-1506
-1445
-1402
-1404
-1416
-1459
-1498
-1509
-1498
-1483
-1454
-1449
-1446
-1431
-1438
-1464
-1469
-1468
-1481
-1504
-1491
-1490
-1481
-1441
-1421
-1421
-1447
-1472
-1516
-1545
-1530
-1496
-1447
-1409
-1383
-1417
-1467
-1499
-1531
-1534
-1504
-1451
-1409
-1409
-1412
-1445
-1487
-1511
-1506
-1495
-1464
-1447
-1449
-1457
-1435
-1452
-1466
-1454
-1468
-1488
-1487
-1483
-1467
-1441
-1407
-1409
-1430
-1457
-1505
-1525
-1527
-1492
-1449
-1396
-1369
-1348
-1339
-1313
-1270
-1198
-1091
-967
-870
-821
-787
-793
-792
-774
-745
-696
-631
-604
-596
-607
-600
-611
-632
-631
-643
-691
-712
-735
-756
-782
-774
-784
-851
-947
-1073
-1171
-1221
-1266
-1297
-1316
-1343
-1392
-1461
-1501
-1515
-1524
-1492
-1455
-1411
-1407
-1411
-1440
-1469
-1512
-1500
-1481
-1451
-1449
-1436
-1430
-1424
-1456
-1475
-1469
-1452
-1491
-1498
-1492
-1483
-1454
-1410
-1391
-1414
-1445
-1492
-1536
-1521
-1497
-1447
-1401
-1408
-1542
-1717
-1890
-2049
-2192
-2303
-2387
-2335
-1836
-1149
-459
277
991
1744
2531
3332
4134
4933
5706
6135
5777
5123
4392
3609
2820
2021
1233
464
-287
-1038
-1816
-2414
-2592
-2568
-2462
-2292
-2085
-1864
-1618
-1440
-1429
-1461
-1496
-1529
-1531
-1494
-1437
-1419
-1394
-1403
-1441
-1474
-1481
-1457
-1436
-1403
-1374
-1356
-1364
-1347
-1343
-1341
-1336
-1340
-1344
-1352
-1331
-1311
-1279
-1227
-1222
-1239
-1242
-1264
-1293
-1290
-1243
-1189
-1147
-1122
-1121
-1157
-1194
-1201
-1203
-1145
-1067
-1007
-968
-967
-1002
-1028
-1047
-1048
-1019
-973
-943
-952
-928
-899
-892
-904
-871
-861
-876
-858
-846
-818
-783
-735
-728
-748
-772
-796
-809
-765
-716
-657
-584
-537
-528
-540
-544
-542
-507
-431
-319
-250
-212
-190
-176
-199
-219
-206
-167
-116
-82
-71
-79
-91
-121
-124
-118
-136
-152
-164
-201
-241
-261
-254
-278
-344
-420
-514
-622
-704
-744
-787
-819
-877
-1001
-1121
-1226
-1289
-1331
-1324
-1318
-1328
-1335
-1382
-1418
-1471
-1492
-1489
-1474
-1462
-1443
-1430
-1431
-1430
-1432
-1433
-1443
-1441
-1480
-1499
-1488
-1461
-1439
-1402
-1377
-1401
-1447
-1472
-1529
-1524
-1473
-1434
-1395
-1366
-1377
-1426
-1481
-1505
-1519
-1493
-1447
-1410
-1390
-1394
-1430
-1466
-1493
-1481
-1474
-1463
-1441
-1429
-1423
-1412
-1436
-1444
-1441
-1447
-1476
-1499
-1487
-1461
-1434
-1380
-1374
-1398
-1435
-1469
-1505
-1517
-1486
-1444
-1396
-1371
-1396
-1438
-1482
-1510
-1516
-1502
-1452
-1407
-1397
-1401
-1441
-1474
-1489
-1481
-1475
-1449
-1428
-1427
-1436
-1422
-1436
-1442
-1435
-1442
-1471
-1478
-1462
-1472
-1442
-1406
-1376
-1386
-1434
-1474
-1516
-1510
-1478
-1426
-1396
-1365
-1373
-1421
-1481
-1524
-1527
-1494
-1437
-1402
-1413
-1410
-1419
-1459
-1490
-1479
-1458
-1394
-1315
-1221
-1156
-1090
-1039
-965
-901
-869
-861
-841
-797
-752
-700
-616
-558
-574
-609
-645
-686
-690
-668
-616
-556
-545
-603
-686
-761
-822
-877
-892
-873
-877
-938
-1021
-1138
-1239
-1328
-1396
-1441
-1457
-1436
-1427
-1431
-1421
-1436
-1437
-1433
-1440
-1484
-1501
-1474
-1456
-1434
-1394
-1367
-1396
-1432
-1472
-1504
-1518
-1488
-1425
-1383
-1371
-1384
-1438
-1487
-1510
-1529
-1493
-1431
-1395
-1406
-1397
-1432
-1447
-1479
-1476
-1496
-1574
-1691
-1828
-1970
-2122
-2261
-2389
-2334
-1866
-1214
-502
256
1033
1804
2583
3366
4156
4911
5639
6052
5745
5127
4424
3690
2951
2153
1315
479
-336
-1134
-1911
-2447
-2556
-2484
-2337
-2184
-2052
-1907
-1727
-1566
-1479
-1441
-1440
-1442
-1422
-1417
-1439
-1439
-1431
-1461
-1468
-1455
-1431
-1419
-1361
-1324
-1329
-1366
-1411
-1425
-1423
-1387
-1334
-1281
-1244
-1256
-1274
-1325
-1341
-1347
-1319
-1256
-1199
-1167
-1171
-1182
-1212
-1239
-1219
-1196
-1189
-1162
-1129
-1108
-1097
-1072
-1064
-1046
-1044
-1043
-1047
-1034
-1005
-991
-949
-887
-897
-933
-958
-983
-968
-925
-875
-823
-774
-741
-776
-826
-850
-864
-837
-777
-713
-696
-684
-666
-668
-683
-667
-616
-586
-544
-495
-452
-411
-363
-325
-301
-261
-247
-224
-206
-177
-130
-77
-40
-41
-66
-102
-154
-169
-166
-136
-74
-48
-82
-144
-225
-302
-362
-399
-406
-373
-416
-491
-592
-711
-838
-915
-996
-1068
-1122
-1159
-1213
-1240
-1272
-1312
-1359
-1388
-1444
-1480
-1482
-1463
-1434
-1396
-1375
-1392
-1427
-1471
-1507
-1525
-1500
-1443
-1390
-1352
-1364
-1404
-1454
-1491
-1511
-1499
-1432
-1397
-1387
-1397
-1404
-1451
-1461
-1458
-1467
-1462
-1446
-1434
-1429
-1407
-1411
-1424
-1424
-1423
-1447
-1461
-1472
-1461
-1435
-1405
-1372
-1380
-1419
-1466
-1509
-1518
-1489
-1449
-1391
-1354
-1361
-1416
-1466
-1488
-1505
-1479
-1432
-1385
-1382
-1377
-1411
-1452
-1460
-1467
-1472
-1452
-1434
-1434
-1427
-1421
-1414
-1421
-1422
-1430
-1454
-1476
-1488
-1469
-1432
-1402
-1367
-1367
-1413
-1449
-1497
-1513
-1482
-1441
-1390
-1369
-1362
-1409
-1467
-1486
-1491
-1487
-1445
-1398
-1384
-1391
-1402
-1437
-1462
-1462
-1467
-1462
-1444
-1431
-1424
-1416
-1407
-1419
-1416
-1441
-1474
-1484
-1479
-1469
-1435
-1386
-1306
-1251
-1212
-1187
-1147
-1093
-1020
-909
-802
-726
-695
-707
-722
-732
-714
-674
-615
-565
-543
-547
-562
-599
-637
-649
-673
-694
-697
-721
-742
-760
-791
-862
-915
-988
-1082
-1180
-1253
-1301
-1344
-1368
-1351
-1376
-1429
-1451
-1482
-1514
-1497
-1452
-1402
-1369
-1356
-1396
-1446
-1483
-1490
-1482
-1442
-1404
-1399
-1397
-1409
-1432
-1460
-1474
-1465
-1451
-1443
-1437
-1421
-1414
-1396
-1402
-1417
-1411
-1438
-1469
-1478
-1478
-1428
-1421
-1497
-1624
-1804
-1993
-2184
-2340
-2446
-2355
-1828
-1131
-390
326
1032
1751
2485
3244
4068
4901
5701
6164
5885
5207
4425
3634
2854
2076
1297
527
-246
-1018
-1809
-2420
-2571
-2517
-2403
-2251
-2077
-1891
-1682
-1483
-1384
-1361
-1400
-1446
-1497
-1513
-1472
-1426
-1384
-1345
-1328
-1382
-1419
-1440
-1467
-1444
-1389
-1336
-1312
-1309
-1307
-1327
-1332
-1324
-1336
-1309
-1283
-1277
-1257
-1238
-1215
-1223
-1212
-1230
-1253
-1261
-1253
-1214
-1186
-1149
-1087
-1069
-1112
-1150
-1177
-1167
-1136
-1068
-989
-933
-936
-960
-1000
-1016
-1028
-1027
-978
-916
-873
-873
-863
-871
-884
-865
-849
-824
-804
-801
-784
-756
-734
-733
-717
-729
-742
-742
-696
-662
-613
-547
-491
-466
-462
-459
-481
-463
-386
-299
-212
-142
-114
-134
-161
-174
-167
-142
-87
-44
-31
-29
-49
-82
-119
-132
-129
-149
-153
-199
-239
-266
-290
-340
-388
-447
-544
-661
-751
-814
-864
-907
-956
-1040
-1133
-1217
-1289
-1349
-1374
-1361
-1334
-1333
-1344
-1388
-1447
-1484
-1492
-1484
-1435
-1386
-1369
-1373
-1401
-1431
-1458
-1462
-1439
-1455
-1448
-1442
-1438
-1421
-1399
-1378
-1385
-1404
-1460
-1481
-1476
-1470
-1447
-1399
-1353
-1355
-1399
-1441
-1485
-1509
-1491
-1446
-1381
-1342
-1349
-1383
-1441
-1479
-1496
-1489
-1444
-1406
-1402
-1383
-1394
-1418
-1441
-1447
-1444
-1456
-1437
-1426
-1414
-1409
-1393
-1384
-1402
-1411
-1434
-1471
-1479
-1459
-1435
-1402
-1364
-1358
-1397
-1449
-1484
-1518
-1496
-1428
-1377
-1360
-1346
-1380
-1421
-1457
-1489
-1480
-1434
-1397
-1387
-1392
-1414
-1431
-1450
-1467
-1444
-1444
-1446
-1435
-1433
-1417
-1397
-1397
-1409
-1421
-1430
-1466
-1469
-1469
-1447
-1399
-1355
-1354
-1392
-1435
-1479
-1516
-1495
-1436
-1379
-1368
-1347
-1387
-1428
-1454
-1469
-1433
-1312
-1200
-1135
-1069
-1003
-953
-907
-869
-828
-793
-758
-721
-673
-628
-575
-572
-566
-575
-591
-644
-649
-625
-617
-592
-575
-609
-678
-758
-831
-899
-921
-944
-956
-979
-1053
-1157
-1275
-1369
-1457
-1477
-1428
-1404
-1384
-1377
-1381
-1406
-1449
-1446
-1426
-1433
-1431
-1414
-1431
-1428
-1396
-1387
-1391
-1414
-1450
-1488
-1485
-1482
-1448
-1396
-1364
-1357
-1391
-1435
-1467
-1502
-1486
-1457
-1400
-1352
-1351
-1389
-1434
-1463
-1514
-1611
-1704
-1787
-1917
-2062
-2213
-2381
-2356
-1899
-1211
-486
268
1036
1801
2580
3346
4094
4874
5657
6104
5802
5181
4439
3656
2920
2179
1396
573
-249
-1079
-1905
-2488
-2598
-2469
-2300
-2117
-1982
-1842
-1701
-1576
-1501
-1444
-1417
-1387
-1393
-1384
-1407
-1435
-1450
-1424
-1416
-1417
-1414
-1410
-1383
-1360
-1332
-1326
-1332
-1337
-1367
-1374
-1352
-1321
-1271
-1208
-1184
-1217
-1274
-1304
-1316
-1307
-1253
-1181
-1148
-1135
-1135
-1166
-1199
-1216
-1216
-1166
-1107
-1078
-1072
-1043
-1038
-1059
-1054
-1021
-1017
-1007
-979
-956
-942
-929
-913
-898
-906
-924
-949
-933
-896
-854
-795
-730
-704
-737
-793
-813
-830
-818
-771
-707
-636
-602
-602
-616
-637
-647
-639
-569
-474
-392
-363
-331
-310
-284
-263
-224
-201
-186
-152
-135
-105
-62
-31
-29
-41
-67
-119
-135
-144
-128
-89
-51
-71
-142
-239
-325
-387
-406
-426
-427
-452
-510
-629
-761
-874
-988
-1076
-1123
-1141
-1156
-1202
-1232
-1291
-1346
-1392
-1407
-1414
-1439
-1454
-1436
-1427
-1396
-1394
-1389
-1385
-1414
-1464
-1496
-1479
-1446
-1394
-1344
-1327
-1377
-1432
-1466
-1497
-1503
-1449
-1394
-1364
-1357
-1361
-1411
-1459
-1476
-1471
-1452
-1402
-1389
-1390
-1383
-1395
-1434
-1442
-1430
-1429
-1433
-1447
-1429
-1411
-1397
-1382
-1368
-1387
-1437
-1465
-1473
-1475
-1453
-1399
-1340
-1332
-1373
-1427
-1460
-1491
-1489
-1437
-1387
-1359
-1351
-1361
-1404
-1454
-1477
-1467
-1452
-1417
-1389
-1386
-1365
-1397
-1429
-1443
-1441
-1444
-1444
-1442
-1433
-1420
-1401
-1382
-1377
-1392
-1421
-1466
-1486
-1479
-1433
-1397
-1360
-1354
-1373
-1426
-1468
-1494
-1486
-1447
-1394
-1360
-1360
-1367
-1415
-1455
-1473
-1481
-1452
-1405
-1389
-1386
-1383
-1402
-1422
-1436
-1444
-1443
-1454
-1447
-1439
-1417
-1341
-1261
-1181
-1122
-1086
-1047
-1009
-942
-854
-781
-704
-659
-661
-677
-686
-669
-666
-612
-549
-518
-502
-533
-577
-629
-677
-709
-712
-709
-721
-753
-798
-825
-924
-1002
-1059
-1139
-1214
-1275
-1357
-1408
-1392
-1372
-1359
-1387
-1427
-1473
-1484
-1472
-1442
-1398
-1344
-1333
-1372
-1424
-1488
-1509
-1486
-1438
-1392
-1344
-1332
-1363
-1396
-1448
-1486
-1475
-1446
-1404
-1379
-1390
-1395
-1402
-1419
-1439
-1435
-1431
-1453
-1454
-1435
-1456
-1530
-1630
-1768
-1919
-2091
-2281
-2447
-2415
-1922
-1192
-416
351
1090
1789
2519
3241
3998
4804
5633
6161
5928
5292
4507
3684
2864
2081
1313
566
-204
-987
-1784
-2403
-2584
-2508
-2356
-2211
-2041
-1872
-1680
-1505
-1416
-1374
-1365
-1382
-1414
-1452
-1482
-1463
-1435
-1400
-1349
-1321
-1342
-1376
-1416
-1444
-1441
-1382
-1322
-1299
-1270
-1276
-1315
-1337
-1349
-1316
-1294
-1258
-1258
-1228
-1213
-1211
-1226
-1227
-1207
-1203
-1217
-1195
-1186
-1166
-1129
-1104
-1081
-1077
-1093
-1106
-1108
-1080
-1041
-977
-913
-879
-910
-955
-995
-1025
-1017
-965
-903
-856
-814
-807
-822
-847
-864
-844
-825
-786
-746
-717
-709
-706
-732
-740
-703
-683
-669
-651
-616
-571
-534
-495
-440
-426
-411
-403
-378
-338
-267
-204
-127
-69
-86
-111
-131
-151
-158
-106
-57
-12
7
-11
-71
-129
-154
-175
-177
-197
-212
-244
-286
-338
-399
-456
-514
-611
-719
-798
-886
-950
-1012
-1063
-1101
-1160
-1221
-1305
-1357
-1390
-1401
-1388
-1360
-1327
-1353
-1407
-1459
-1492
-1496
-1461
-1397
-1360
-1349
-1354
-1397
-1419
-1450
-1457
-1453
-1423
-1394
-1380
-1377
-1381
-1399
-1404
-1411
-1429
-1439
-1449
-1439
-1427
-1411
-1380
-1360
-1382
-1411
-1459
-1493
-1477
-1429
-1396
-1351
-1332
-1366
-1413
-1458
-1473
-1479
-1453
-1404
-1362
-1347
-1358
-1400
-1440
-1459
-1464
-1442
-1434
-1391
-1375
-1381
-1389
-1406
-1424
-1413
-1425
-1444
-1449
-1444
-1429
-1402
-1365
-1371
-1379
-1394
-1452
-1492
-1477
-1439
-1407
-1356
-1335
-1355
-1400
-1458
-1502
-1501
-1466
-1406
-1369
-1354
-1352
-1395
-1436
-1460
-1464
-1445
-1412
-1398
-1387
-1402
-1392
-1412
-1421
-1411
-1425
-1446
-1446
-1435
-1416
-1396
-1364
-1361
-1374
-1407
-1451
-1477
-1486
-1447
-1391
-1359
-1332
-1346
-1384
-1422
-1432
-1381
-1267
-1139
-1020
-942
-904
-871
-864
-853
-798
-751
-709
-651
-592
-558
-557
-576
-587
-588
-589
-608
-621
-594
-601
-621
-638
-653
-698
-772
-848
-911
-966
-1004
-1022
-1027
-1081
-1192
-1304
-1406
-1472
-1487
-1463
-1401
-1370
-1355
-1360
-1398
-1439
-1457
-1450
-1451
-1437
-1404
-1401
-1398
-1386
-1401
-1415
-1405
-1405
-1431
-1441
-1446
-1434
-1414
-1383
-1374
-1379
-1408
-1448
-1489
-1479
-1441
-1409
-1360
-1317
-1342
-1414
-1491
-1602
-1740
-1836
-1929
-2038
-2166
-2319
-2326
-1899
-1256
-531
232
1013
1789
2566
3336
4099
4846
5581
6080
5857
5233
4496
3718
2937
2159
1398
624
-152
-984
-1829
-2479
-2644
-2560
-2352
-2144
-1934
-1769
-1634
-1537
-1506
-1509
-1474
-1419
-1371
-1367
-1367
-1404
-1445
-1463
-1456
-1433
-1413
-1372
-1354
-1354
-1344
-1349
-1349
-1324
-1312
-1339
-1348
-1333
-1297
-1266
-1223
-1206
-1205
-1254
-1268
-1279
-1280
-1250
-1190
-1124
-1101
-1112
-1151
-1201
-1216
-1216
-1171
-1096
-1041
-1029
-998
-1014
-1027
-1054
-1035
-1013
-974
-937
-925
-927
-903
-911
-919
-906
-889
-872
-869
-852
-834
-803
-760
-732
-738
-741
-758
-778
-786
-756
-699
-617
-557
-559
-591
-611
-600
-587
-529
-439
-350
-302
-266
-257
-255
-225
-199
-164
-141
-92
-72
-63
-40
-52
-47
-59
-78
-103
-121
-126
-115
-95
-101
-126
-183
-259
-333
-421
-451
-473
-500
-526
-595
-706
-826
-946
-1086
-1171
-1174
-1179
-1189
-1206
-1257
-1320
-1390
-1436
-1449
-1445
-1415
-1400
-1398
-1389
-1390
-1406
-1403
-1397
-1406
-1439
-1447
-1435
-1417
-1396
-1360
-1344
-1373
-1394
-1431
-1473
-1472
-1443
-1411
-1365
-1337
-1337
-1388
-1446
-1475
-1481
-1454
-1421
-1386
-1360
-1364
-1390
-1419
-1442
-1458
-1442
-1424
-1409
-1401
-1397
-1391
-1401
-1409
-1424
-1422
-1440
-1456
-1449
-1438
-1419
-1369
-1339
-1361
-1403
-1434
-1464
-1479
-1452
-1409
-1363
-1332
-1338
-1389
-1438
-1477
-1493
-1471
-1412
-1381
-1352
-1355
-1384
-1432
-1450
-1442
-1439
-1421
-1409
-1382
-1390
-1404
-1401
-1400
-1391
-1407
-1449
-1454
-1424
-1426
-1406
-1382
-1354
-1359
-1393
-1427
-1468
-1474
-1443
-1400
-1373
-1337
-1352
-1391
-1437
-1480
-1490
-1469
-1431
-1374
-1350
-1345
-1381
-1418
-1449
-1461
-1439
-1412
-1395
-1368
-1326
-1274
-1209
-1133
-1064
-1017
-969
-922
-875
-816
-762
-679
-617
-597
-601
-615
-648
-657
-622
-571
-521
-493
-512
-555
-622
-681
-757
-773
-738
-737
-749
-786
-877
-977
-1084
-1152
-1203
-1240
-1297
-1359
-1387
-1387
-1392
-1387
-1387
-1392
-1428
-1449
-1444
-1431
-1404
-1381
-1343
-1354
-1393
-1436
-1470
-1484
-1456
-1421
-1366
-1314
-1326
-1381
-1432
-1461
-1487
-1461
-1426
-1368
-1359
-1368
-1388
-1416
-1446
-1446
-1438
-1427
-1396
-1404
-1519
-1643
-1769
-1911
-2070
-2221
-2389
-2386
-1937
-1237
-486
289
1064
1823
2569
3297
4028
4784
5556
6087
5894
5309
4587
3784
2941
2119
1296
536
-182
-927
-1724
-2352
-2541
-2505
-2406
-2234
-2052
-1848
-1649
-1492
-1457
-1414
-1389
-1392
-1396
-1405
-1434
-1467
-1454
-1434
-1407
-1352
-1310
-1302
-1350
-1387
-1410
-1415
-1377
-1324
-1272
-1225
-1223
-1257
-1296
-1324
-1344
-1314
-1240
-1204
-1182
-1172
-1180
-1202
-1217
-1227
-1212
-1188
-1164
-1146
-1132
-1101
-1098
-1092
-1068
-1057
-1059
-1077
-1045
-1019
-982
-938
-906
-906
-929
-960
-1004
-1002
-967
-892
-840
-772
-761
-794
-821
-852
-854
-824
-758
-707
-687
-680
-698
-724
-719
-697
-667
-639
-594
-552
-516
-491
-459
-432
-393
-351
-339
-309
-267
-215
-169
-111
-74
-56
-60
-91
-117
-114
-119
-73
-19
4
-12
-58
-103
-157
-220
-237
-234
-249
-261
-297
-361
-437
-522
-609
-706
-774
-832
-918
-1016
-1085
-1116
-1162
-1200
-1231
-1298
-1383
-1417
-1431
-1414
-1363
-1324
-1341
-1376
-1417
-1463
-1482
-1476
-1419
-1366
-1322
-1333
-1379
-1436
-1460
-1492
-1475
-1409
-1357
-1370
-1383
-1386
-1416
-1452
-1451
-1441
-1428
-1429
-1420
-1411
-1393
-1392
-1394
-1402
-1407
-1429
-1446
-1450
-1429
-1414
-1379
-1351
-1337
-1388
-1426
-1457
-1496
-1474
-1425
-1372
-1340
-1331
-1390
-1432
-1473
-1491
-1458
-1406
-1364
-1367
-1375
-1392
-1406
-1426
-1421
-1431
-1439
-1419
-1402
-1387
-1383
-1381
-1391
-1391
-1396
-1424
-1465
-1479
-1441
-1418
-1386
-1347
-1342
-1379
-1434
-1475
-1490
-1474
-1419
-1367
-1332
-1343
-1396
-1419
-1468
-1489
-1482
-1431
-1382
-1376
-1382
-1381
-1399
-1427
-1434
-1422
-1429
-1409
-1401
-1401
-1394
-1395
-1391
-1387
-1407
-1434
-1467
-1444
-1432
-1401
-1364
-1336
-1347
-1360
-1365
-1343
-1303
-1207
-1096
-979
-869
-806
-807
-802
-789
-788
-748
-650
-575
-556
-541
-544
-569
-598
-609
-605
-611
-597
-580
-618
-645
-667
-716
-751
-789
-856
-940
-1012
-1062
-1111
-1156
-1171
-1254
-1352
-1426
-1466
-1493
-1469
-1412
-1362
-1334
-1330
-1376
-1426
-1462
-1474
-1466
-1425
-1387
-1367
-1356
-1382
-1416
-1449
-1456
-1451
-1432
-1415
-1402
-1411
-1409
-1376
-1371
-1372
-1391
-1424
-1453
-1439
-1431
-1409
-1376
-1334
-1339
-1401
-1531
-1702
-1844
-1975
-2086
-2177
-2286
-2268
-1861
-1251
-554
194
945
1729
2543
3348
4124
4891
5629
6101
5838
5225
4501
3765
2986
2190
1408
631
-140
-937
-1742
-2411
-2632
-2576
-2413
-2214
-1986
-1766
-1591
-1478
-1459
-1482
-1489
-1468
-1412
-1361
-1336
-1328
-1368
-1421
-1458
-1480
-1457
-1411
-1349
-1317
-1301
-1296
-1329
-1340
-1347
-1333
-1317
-1300
-1271
-1275
-1256
-1245
-1235
-1209
-1211
-1233
-1256
-1249
-1232
-1186
-1149
-1092
-1074
-1116
-1151
-1172
-1195
-1156
-1089
-1021
-977
-946
-954
-1003
-1026
-1035
-1032
-976
-932
-889
-887
-887
-896
-910
-902
-888
-872
-837
-804
-777
-760
-752
-737
-727
-725
-749
-779
-767
-726
-676
-611
-551
-531
-549
-561
-574
-547
-492
-417
-306
-231
-184
-182
-195
-222
-222
-192
-142
-85
-36
-3
-7
-46
-69
-72
-92
-106
-99
-83
-99
-147
-176
-199
-234
-291
-358
-414
-480
-534
-581
-629
-671
-756
-885
-1027
-1141
-1213
-1252
-1227
-1210
-1228
-1261
-1322
-1391
-1440
-1486
-1475
-1427
-1387
-1381
-1376
-1384
-1413
-1436
-1438
-1429
-1424
-1415
-1401
-1396
-1396
-1394
-1375
-1383
-1407
-1431
-1446
-1452
-1440
-1420
-1388
-1343
-1334
-1377
-1431
-1477
-1493
-1474
-1417
-1364
-1340
-1335
-1374
-1409
-1455
-1480
-1467
-1428
-1379
-1354
-1366
-1370
-1394
-1425
-1434
-1410
-1407
-1413
-1419
-1419
-1416
-1401
-1377
-1384
-1394
-1416
-1453
-1459
-1450
-1416
-1366
-1335
-1348
-1376
-1406
-1456
-1486
-1469
-1421
-1384
-1342
-1335
-1362
-1405
-1444
-1461
-1458
-1423
-1385
-1379
-1376
-1368
-1397
-1439
-1433
-1424
-1428
-1427
-1412
-1404
-1392
-1381
-1372
-1377
-1381
-1415
-1460
-1454
-1423
-1421
-1388
-1343
-1352
-1367
-1410
-1461
-1481
-1476
-1427
-1373
-1330
-1327
-1374
-1424
-1452
-1477
-1467
-1427
-1377
-1311
-1253
-1196
-1154
-1085
-1017
-955
-899
-844
-804
-754
-707
-657
-625
-597
-564
-587
-607
-609
-601
-584
-544
-501
-506
-556
-636
-721
-783
-798
-786
-760
-766
-812
-923
-1034
-1132
-1232
-1293
-1324
-1337
-1345
-1361
-1376
-1396
-1406
-1418
-1412
-1417
-1413
-1408
-1422
-1391
-1374
-1381
-1386
-1395
-1422
-1456
-1459
-1436
-1409
-1372
-1333
-1342
-1371
-1404
-1454
-1479
-1463
-1422
-1370
-1338
-1330
-1366
-1409
-1444
-1456
-1462
-1433
-1418
-1499
-1613
-1754
-1926
-2082
-2232
-2372
-2363
-1914
-1244
-496
243
1013
1789
2556
3304
4059
4809
5579
6095
5874
5292
4598
3847
3028
2196
1357
546
-239
-960
-1706
-2314
-2497
-2463
-2369
-2234
-2067
-1904
-1684
-1495
-1405
-1364
-1376
-1396
-1416
-1421
-1412
-1423
-1425
-1424
-1407
-1381
-1338
-1347
-1334
-1350
-1345
-1366
-1377
-1366
-1331
-1267
-1220
-1224
-1251
-1273
-1302
-1325
-1314
-1252
-1185
-1157
-1134
-1146
-1197
-1223
-1234
-1219
-1167
-1128
-1102
-1091
-1074
-1081
-1090
-1069
-1051
-1047
-1036
-1006
-977
-954
-930
-916
-921
-920
-938
-957
-960
-940
-901
-854
-776
-754
-756
-780
-809
-837
-841
-784
-717
-666
-649
-662
-684
-707
-707
-672
-616
-540
-499
-463
-444
-431
-406
-366
-327
-266
-258
-202
-153
-130
-91
-79
-58
-42
-56
-86
-98
-89
-77
-55
-6
-19
-49
-101
-175
-259
-282
-278
-283
-289
-316
-374
-488
-618
-729
-811
-871
-909
-970
-1051
-1091
-1162
-1227
-1267
-1302
-1341
-1371
-1403
-1419
-1404
-1384
-1377
-1367
-1384
-1419
-1461
-1465
-1445
-1418
-1392
-1359
-1329
-1350
-1408
-1453
-1486
-1483
-1425
-1372
-1335
-1324
-1361
-1411
-1426
-1456
-1469
-1422
-1392
-1388
-1385
-1361
-1383
-1415
-1434
-1427
-1429
-1419
-1422
-1398
-1403
-1385
-1376
-1371
-1374
-1399
-1447
-1473
-1454
-1422
-1384
-1324
-1333
-1364
-1399
-1442
-1475
-1475
-1424
-1377
-1341
-1332
-1366
-1396
-1450
-1469
-1457
-1427
-1394
-1367
-1374
-1379
-1396
-1409
-1418
-1417
-1424
-1421
-1425
-1408
-1402
-1389
-1372
-1367
-1383
-1411
-1454
-1454
-1451
-1422
-1372
-1330
-1334
-1362
-1420
-1460
-1478
-1477
-1441
-1374
-1339
-1338
-1360
-1397
-1437
-1458
-1452
-1428
-1401
-1369
-1367
-1365
-1385
-1406
-1408
-1415
-1409
-1414
-1417
-1409
-1406
-1397
-1369
-1353
-1337
-1299
-1257
-1197
-1123
-1039
-922
-808
-753
-734
-753
-767
-764
-726
-659
-573
-514
-494
-520
-561
-601
-624
-629
-598
-565
-574
-617
-659
-702
-767
-817
-837
-917
-973
-1028
-1101
-1182
-1221
-1264
-1317
-1369
-1399
-1442
-1472
-1460
-1434
-1382
-1349
-1331
-1371
-1416
-1448
-1482
-1479
-1437
-1379
-1356
-1342
-1360
-1404
-1432
-1440
-1451
-1437
-1400
-1364
-1366
-1377
-1392
-1414
-1430
-1408
-1402
-1416
-1421
-1403
-1401
-1382
-1372
-1387
-1490
-1636
-1811
-1968
-2107
-2230
-2336
-2292
-1832
-1187
-511
192
908
1658
2456
3287
4091
4878
5658
6151
5882
5228
4481
3735
2998
2248
1464
676
-122
-926
-1743
-2362
-2558
-2521
-2389
-2206
-2016
-1815
-1619
-1461
-1409
-1413
-1440
-1471
-1464
-1425
-1381
-1331
-1331
-1349
-1409
-1434
-1457
-1444
-1389
-1316
-1270
-1271
-1288
-1309
-1339
-1354
-1347
-1316
-1271
-1234
-1234
-1231
-1231
-1229
-1227
-1224
-1234
-1217
-1204
-1192
-1172
-1148
-1116
-1117
-1116
-1116
-1149
-1146
-1101
-1064
-1008
-946
-917
-933
-969
-997
-1011
-1020
-976
-902
-862
-848
-839
-864
-892
-914
-889
-849
-791
-752
-746
-733
-739
-761
-766
-751
-741
-728
-701
-668
-649
-607
-565
-532
-507
-520
-512
-485
-441
-389
-310
-207
-129
-126
-157
-179
-198
-187
-130
-57
3
21
1
-46
-86
-117
-133
-102
-80
-76
-96
-145
-195
-250
-314
-347
-387
-450
-512
-579
-665
-731
-799
-882
-977
-1091
-1180
-1231
-1269
-1282
-1254
-1247
-1262
-1332
-1402
-1439
-1470
-1481
-1447
-1407
-1354
-1342
-1347
-1387
-1437
-1468
-1471
-1439
-1393
-1377
-1384
-1372
-1382
-1416
-1418
-1407
-1426
-1432
-1424
-1405
-1397
-1377
-1366
-1360
-1364
-1389
-1437
-1467
-1467
-1449
-1397
-1341
-1316
-1344
-1407
-1436
-1472
-1491
-1444
-1394
-1354
-1334
-1345
-1394
-1446
-1459
-1463
-1437
-1402
-1377
-1377
-1371
-1375
-1401
-1402
-1415
-1417
-1414
-1427
-1411
-1394
-1381
-1364
-1358
-1377
-1412
-1435
-1473
-1456
-1432
-1384
-1339
-1319
-1344
-1400
-1441
-1474
-1486
-1452
-1382
-1339
-1334
-1358
-1396
-1432
-1453
-1456
-1432
-1389
-1387
-1384
-1382
-1378
-1399
-1424
-1411
-1407
-1417
-1414
-1416
-1414
-1392
-1374
-1364
-1372
-1396
-1446
-1462
-1439
-1422
-1394
-1347
-1327
-1340
-1381
-1431
-1470
-1481
-1436
-1336
-1231
-1143
-1092
-1050
-1009
-978
-934
-861
-764
-714
-699
-647
-630
-619
-596
-590
-561
-572
-586
-575
-574
-551
-524
-541
-571
-638
-721
-779
-817
-814
-808
-819
-883
-962
-1074
-1195
-1286
-1384
-1422
-1386
-1350
-1331
-1358
-1391
-1434
-1463
-1451
-1424
-1392
-1377
-1377
-1381
-1371
-1392
-1397
-1396
-1418
-1431
-1411
-1422
-1404
-1392
-1353
-1357
-1378
-1404
-1447
-1483
-1475
-1443
-1391
-1339
-1326
-1359
-1404
-1441
-1488
-1496
-1454
-1485
-1579
-1709
-1859
-2054
-2228
-2403
-2414
-1968
-1256
-494
264
1026
1778
2483
3232
4015
4798
5573
6133
5936
5332
4590
3821
3041
2241
1438
609
-188
-971
-1747
-2359
-2500
-2421
-2313
-2196
-2066
-1915
-1740
-1540
-1410
-1350
-1336
-1361
-1390
-1417
-1439
-1440
-1434
-1382
-1358
-1362
-1362
-1358
-1361
-1356
-1358
-1350
-1355
-1349
-1336
-1310
-1283
-1234
-1230
-1236
-1247
-1274
-1307
-1289
-1245
-1193
-1149
-1114
-1118
-1168
-1216
-1240
-1230
-1176
-1129
-1065
-1037
-1047
-1062
-1090
-1087
-1072
-1040
-989
-940
-934
-935
-919
-942
-951
-914
-921
-919
-914
-892
-848
-813
-781
-744
-735
-759
-787
-820
-814
-782
-722
-676
-637
-641
-645
-674
-686
-684
-619
-524
-465
-419
-377
-375
-375
-360
-316
-257
-191
-130
-107
-92
-79
-88
-92
-67
-53
-68
-63
-69
-59
-49
-41
-35
-70
-134
-206
-266
-306
-319
-343
-332
-339
-447
-564
-680
-800
-892
-971
-1007
-1029
-1064
-1112
-1208
-1272
-1320
-1368
-1397
-1392
-1377
-1382
-1391
-1397
-1412
-1413
-1413
-1407
-1415
-1422
-1426
-1412
-1388
-1354
-1346
-1370
-1401
-1433
-1467
-1464
-1432
-1387
-1358
-1317
-1336
-1380
-1429
-1466
-1477
-1445
-1382
-1346
-1336
-1334
