
-405
-1136
-1604
-1944
-2186
-2327
-2420
-2442
-2405
-2363
-2419
-2496
-2541
-2597
-2656
-2695
-2697
-2730
-2759
-2761
-2782
-2790
-2787
-2780
-2783
-2774
-2799
-2834
-2868
-2866
-2855
-2836
-2799
-2762
-2783
-2838
-2873
-2904
-2914
-2877
-2827
-2791
-2786
-2808
-2851
-2878
-2894
-2888
-2870
-2809
-2747
-2706
-2679
-2647
-2626
-2596
-2533
-2492
-2478
-2449
-2417
-2387
-2361
-2326
-2296
-2277
-2278
-2301
-2317
-2322
-2317
-2287
-2252
-2254
-2297
-2354
-2418
-2464
-2495
-2502
-2496
-2499
-2511
-2561
-2641
-2728
-2791
-2830
-2853
-2836
-2843
-2839
-2828
-2830
-2872
-2884
-2847
-2857
-2870
-2869
-2861
-2856
-2854
-2837
-2823
-2831
-2860
-2899
-2902
-2907
-2894
-2862
-2824
-2797
-2785
-2848
-2891
-2911
-2927
-2897
-2843
-2811
-2798
-2819
-2850
-2894
-2915
-2925
-2889
-2861
-2839
-2831
-2833
-2849
-2900
-2887
-2850
-2799
-2681
-2555
-2430
-2287
-2107
-1946
-1801
-1647
-1524
-1414
-1341
-1503
-1881
-2321
-2786
-3264
-3791
-4341
-4888
-5414
-5923
-6406
-6777
-6722
-6346
-5885
-5414
-4904
-4373
-3826
-3286
-2976
-2871
-2864
-2859
-2869
-2879
-2891
-2881
-2875
-2891
-2879
-2880
-2886
-2871
-2861
-2853
-2857
-2875
-2901
-2931
-2919
-2885
-2849
-2791
-2759
-2782
-2806
-2846
-2878
-2887
-2834
-2794
-2757
-2750
-2761
-2789
-2821
-2827
-2829
-2792
-2737
-2721
-2717
-2706
-2723
-2764
-2765
-2749
-2747
-2757
-2751
-2739
-2737
-2721
-2699
-2684
-2680
-2677
-2698
-2719
-2722
-2711
-2682
-2630
-2612
-2636
-2666
-2699
-2709
-2708
-2665
-2611
-2584
-2553
-2563
-2604
-2629
-2636
-2622
-2601
-2532
-2514
-2499
-2489
-2495
-2497
-2496
-2462
-2437
-2429
-2416
-2396
-2384
-2374
-2354
-2342
-2332
-2329
-2361
-2397
-2399
-2391
-2367
-2329
-2307
-2355
-2409
-2448
-2497
-2511
-2484
-2427
-2403
-2406
-2452
-2517
-2597
-2651
-2683
-2689
-2681
-2702
-2728
-2746
-2784
-2832
-2860
-2857
-2873
-2897
-2899
-2904
-2901
-2880
-2868
-2868
-2872
-2889
-2928
-2949
-2957
-2932
-2897
-2861
-2833
-2867
-2886
-2922
-2973
-2963
-2936
-2897
-2859
-2840
-2859
-2903
-2931
-2947
-2947
-2912
-2866
-2866
-2863
-2876
-2884
-2909
-2924
-2917
-2911
-2908
-2915
-2899
-2898
-2894
-2882
-2877
-2878
-2888
-2921
-2945
-2940
-2916
-2897
-2857
-2825
-2854
-2901
-2927
-2963
-2975
-2941
-2896
-2852
-2830
-2849
-2902
-2940
-2957
-2957
-2919
-2886
-2862
-2872
-2878
-2886
-2931
-2934
-2915
-2909
-2897
-2906
-2914
-2899
-2887
-2884
-2878
-2866
-2899
-2944
-2954
-2941
-2911
-2890
-2854
-2839
-2856
-2904
-2934
-2961
-2966
-2944
-2897
-2857
-2848
-2858
-2900
-2939
-2944
-2960
-2942
-2892
-2859
-2865
-2883
-2896
-2917
-2931
-2906
-2906
-2907
-2906
-2911
-2911
-2899
-2877
-2849
-2813
-2793
-2774
-2761
-2718
-2651
-2577
-2505
-2464
-2462
-2456
-2457
-2466
-2452
-2398
-2331
-2300
-2282
-2311
-2359
-2383
-2384
-2385
-2375
-2371
-2380
-2406
-2440
-2476
-2530
-2563
-2591
-2627
-2665
-2711
-2754
-2803
-2827
-2859
-2871
-2881
-2903
-2949
-2956
-2952
-2941
-2906
-2858
-2832
-2857
-2904
-2929
-2962
-2979
-2945
-2892
-2854
-2832
-2871
-2900
-2939
-2960
-2947
-2925
-2874
-2858
-2873
-2885
-2897
-2929
-2932
-2920
-2909
-2911
-2924
-2905
-2907
-2907
-2897
-2875
-2864
-2887
-2922
-2943
-2945
-2946
-2911
-2780
-2635
-2551
-2441
-2327
-2217
-2077
-1896
-1710
-1525
-1371
-1281
-1484
-1911
-2403
-2913
-3385
-3854
-4334
-4843
-5375
-5896
-6419
-6846
-6820
-6456
-5971
-5449
-4914
-4356
-3803
-3295
-3001
-2924
-2916
-2947
-2958
-2956
-2939
-2906
-2871
-2856
-2869
-2894
-2937
-2980
-2974
-2931
-2889
-2861
-2863
-2861
-2892
-2927
-2931
-2914
-2886
-2832
-2811
-2822
-2819
-2821
-2852
-2850
-2848
-2844
-2845
-2835
-2836
-2824
-2797
-2769
-2749
-2742
-2751
-2797
-2822
-2812
-2802
-2778
-2734
-2722
-2737
-2758
-2797
-2818
-2803
-2749
-2708
-2673
-2644
-2658
-2690
-2731
-2751
-2756
-2722
-2690
-2669
-2667
-2657
-2672
-2700
-2693
-2663
-2650
-2631
-2625
-2623
-2601
-2585
-2589
-2572
-2553
-2555
-2571
-2561
-2547
-2519
-2477
-2421
-2391
-2397
-2418
-2434
-2454
-2441
-2405
-2349
-2309
-2296
-2322
-2371
-2421
-2452
-2456
-2444
-2400
-2394
-2404
-2426
-2457
-2488
-2512
-2505
-2497
-2509
-2538
-2591
-2638
-2649
-2664
-2687
-2734
-2776
-2826
-2881
-2871
-2874
-2877
-2836
-2838
-2867
-2916
-2955
-2968
-2972
-2945
-2907
-2876
-2844
-2879
-2918
-2959
-2982
-2991
-2940
-2893
-2869
-2871
-2896
-2908
-2925
-2948
-2937
-2917
-2917
-2916
-2916
-2915
-2907
-2915
-2901
-2892
-2907
-2944
-2959
-2953
-2946
-2923
-2876
-2852
-2870
-2911
-2942
-2992
-2991
-2951
-2894
-2869
-2851
-2877
-2928
-2941
-2970
-2986
-2951
-2905
-2880
-2877
-2871
-2914
-2949
-2938
-2907
-2907
-2912
-2916
-2923
-2921
-2914
-2902
-2885
-2894
-2903
-2930
-2959
-2962
-2960
-2919
-2872
-2856
-2882
-2918
-2942
-2982
-2989
-2959
-2900
-2866
-2860
-2876
-2919
-2947
-2979
-2989
-2939
-2900
-2867
-2878
-2887
-2916
-2931
-2949
-2939
-2929
-2934
-2922
-2926
-2924
-2907
-2904
-2896
-2901
-2923
-2954
-2974
-2956
-2922
-2899
-2861
-2857
-2886
-2931
-2949
-2977
-2986
-2929
-2842
-2769
-2709
-2694
-2711
-2679
-2639
-2614
-2566
-2493
-2453
-2433
-2403
-2399
-2401
-2392
-2374
-2381
-2369
-2355
-2364
-2369
-2373
-2383
-2390
-2397
-2446
-2521
-2540
-2563
-2578
-2605
-2608
-2618
-2695
-2774
-2852
-2906
-2933
-2935
-2899
-2863
-2848
-2881
-2919
-2950
-2984
-2982
-2931
-2903
-2899
-2890
-2890
-2912
-2928
-2942
-2935
-2928
-2924
-2916
-2921
-2913
-2915
-2911
-2916
-2904
-2907
-2949
-2962
-2950
-2946
-2919
-2879
-2861
-2882
-2921
-2960
-2996
-2982
-2951
-2907
-2869
-2877
-2886
-2927
-2960
-2976
-2915
-2765
-2579
-2421
-2284
-2146
-2034
-1909
-1762
-1602
-1444
-1351
-1530
-1904
-2365
-2851
-3340
-3838
-4337
-4876
-5432
-5957
-6456
-6866
-6803
-6387
-5911
-5438
-4940
-4430
-3907
-3386
-3086
-2947
-2889
-2857
-2881
-2927
-2964
-2983
-2978
-2943
-2900
-2879
-2884
-2891
-2930
-2950
-2950
-2936
-2931
-2929
-2909
-2910
-2910
-2875
-2849
-2847
-2839
-2852
-2887
-2904
-2901
-2881
-2854
-2818
-2799
-2806
-2839
-2857
-2873
-2871
-2822
-2772
-2726
-2721
-2732
-2768
-2820
-2827
-2836
-2804
-2759
-2738
-2722
-2729
-2739
-2754
-2755
-2749
-2741
-2722
-2715
-2717
-2719
-2717
-2714
-2702
-2689
-2707
-2716
-2720
-2716
-2686
-2656
-2614
-2581
-2611
-2637
-2651
-2660
-2657
-2613
-2565
-2520
-2499
-2516
-2529
-2541
-2550
-2534
-2469
-2429
-2411
-2390
-2388
-2397
-2413
-2411
-2394
-2387
-2372
-2388
-2399
-2389
-2402
-2416
-2421
-2428
-2450
-2491
-2507
-2504
-2509
-2492
-2463
-2459
-2516
-2587
-2668
-2716
-2754
-2762
-2752
-2729
-2751
-2789
-2847
-2902
-2931
-2947
-2926
-2891
-2881
-2878
-2890
-2929
-2961
-2972
-2952
-2934
-2922
-2927
-2926
-2920
-2914
-2907
-2905
-2904
-2927
-2954
-2969
-2952
-2946
-2907
-2878
-2866
-2891
-2913
-2950
-2996
-2990
-2949
-2916
-2878
-2876
-2891
-2926
-2956
-2991
-2995
-2949
-2904
-2879
-2882
-2889
-2907
-2959
-2952
-2932
-2927
-2917
-2914
-2914
-2922
-2909
-2913
-2918
-2921
-2931
-2942
-2944
-2949
-2956
-2946
-2889
-2872
-2896
-2917
-2954
-2984
-2984
-2961
-2907
-2860
-2848
-2889
-2922
-2952
-2989
-2979
-2944
-2900
-2900
-2913
-2916
-2932
-2961
-2961
-2951
-2936
-2924
-2920
-2927
-2937
-2920
-2910
-2919
-2918
-2924
-2964
-2979
-2957
-2947
-2919
-2886
-2869
-2894
-2924
-2965
-2995
-3004
-2957
-2910
-2882
-2870
-2887
-2921
-2949
-2979
-2972
-2941
-2902
-2891
-2905
-2904
-2921
-2933
-2899
-2851
-2789
-2734
-2694
-2653
-2612
-2572
-2544
-2512
-2479
-2464
-2460
-2460
-2419
-2381
-2362
-2335
-2319
-2327
-2380
-2417
-2444
-2461
-2439
-2416
-2404
-2406
-2474
-2562
-2620
-2663
-2706
-2717
-2709
-2728
-2786
-2842
-2904
-2931
-2938
-2923
-2918
-2922
-2927
-2927
-2917
-2920
-2911
-2909
-2911
-2923
-2952
-2954
-2951
-2954
-2922
-2881
-2871
-2886
-2926
-2965
-2987
-2976
-2949
-2921
-2869
-2860
-2891
-2938
-2968
-2979
-2985
-2972
-2921
-2894
-2887
-2888
-2909
-2960
-2964
-2954
-2937
-2927
-2919
-2911
-2896
-2852
-2749
-2602
-2451
-2321
-2213
-2069
-1917
-1747
-1574
-1396
-1284
-1475
-1899
-2400
-2909
-3411
-3884
-4344
-4808
-5320
-5870
-6431
-6891
-6884
-6533
-6017
-5462
-4906
-4367
-3817
-3336
-3077
-2987
-2964
-2949
-2924
-2927
-2921
-2931
-2925
-2926
-2927
-2917
-2916
-2937
-2953
-2952
-2944
-2921
-2901
-2869
-2880
-2902
-2923
-2963
-2929
-2891
-2835
-2797
-2791
-2815
-2857
-2892
-2905
-2902
-2867
-2815
-2793
-2790
-2804
-2814
-2841
-2843
-2827
-2809
-2792
-2796
-2799
-2791
-2769
-2776
-2769
-2759
-2754
-2781
-2782
-2773
-2759
-2722
-2685
-2667
-2686
-2721
-2755
-2785
-2779
-2739
-2682
-2643
-2644
-2662
-2689
-2709
-2730
-2718
-2664
-2615
-2602
-2592
-2582
-2594
-2611
-2606
-2583
-2566
-2542
-2528
-2508
-2481
-2461
-2455
-2438
-2437
-2421
-2438
-2449
-2431
-2412
-2377
-2339
-2341
-2372
-2405
-2437
-2482
-2480
-2450
-2436
-2411
-2388
-2437
-2488
-2533
-2565
-2565
-2557
-2539
-2540
-2586
-2641
-2701
-2767
-2793
-2800
-2817
-2829
-2852
-2866
-2880
-2889
-2914
-2923
-2907
-2923
-2952
-2962
-2953
-2936
-2913
-2886
-2881
-2899
-2947
-2974
-2989
-2959
-2935
-2909
-2874
-2868
-2892
-2907
-2952
-2993
-3001
-2954
-2900
-2885
-2879
-2901
-2936
-2967
-2961
-2934
-2916
-2929
-2924
-2932
-2932
-2918
-2936
-2919
-2915
-2934
-2956
-2953
-2962
-2946
-2911
-2876
-2887
-2905
-2927
-2974
-2993
-2988
-2960
-2919
-2872
-2860
-2890
-2941
-2974
-2987
-2984
-2922
-2882
-2889
-2887
-2904
-2932
-2971
-2971
-2956
-2945
-2924
-2930
-2937
-2939
-2934
-2932
-2927
-2912
-2930
-2949
-2954
-2951
-2949
-2917
-2879
-2872
-2899
-2932
-2972
-3000
-2994
-2944
-2897
-2874
-2867
-2904
-2948
-2981
-2993
-2990
-2943
-2894
-2872
-2882
-2913
-2942
-2963
-2962
-2964
-2944
-2917
-2916
-2926
-2936
-2926
-2920
-2921
-2915
-2926
-2952
-2969
-2954
-2906
-2822
-2741
-2678
-2657
-2654
-2637
-2634
-2617
-2556
-2485
-2417
-2374
-2383
-2400
-2392
-2423
-2434
-2405
-2351
-2348
-2341
-2347
-2387
-2437
-2483
-2491
-2484
-2503
-2536
-2570
-2614
-2651
-2694
-2726
-2747
-2814
-2891
-2941
-2962
-2939
-2912
-2881
-2872
-2900
-2940
-2972
-2990
-2992
-2947
-2894
-2874
-2860
-2902
-2940
-2969
-2981
-2989
-2942
-2907
-2892
-2901
-2896
-2925
-2958
-2961
-2951
-2948
-2925
-2936
-2935
-2920
-2929
-2930
-2916
-2909
-2924
-2946
-2956
-2962
-2940
-2907
-2881
-2879
-2902
-2927
-2954
-2904
-2802
-2637
-2444
-2272
-2126
-2013
-1911
-1789
-1676
-1518
-1363
-1491
-1857
-2325
-2831
-3366
-3894
-4397
-4879
-5389
-5898
-6409
-6852
-6859
-6494
-6002
-5475
-4924
-4404
-3877
-3377
-3089
-2987
-2919
-2884
-2876
-2893
-2921
-2974
-2999
-2987
-2951
-2911
-2882
-2879
-2901
-2942
-2984
-2985
-2972
-2942
-2897
-2883
-2860
-2845
-2877
-2895
-2888
-2881
-2859
-2861
-2852
-2842
-2847
-2844
-2842
-2847
-2838
-2834
-2839
-2833
-2839
-2823
-2791
-2747
-2745
-2763
-2789
-2841
-2849
-2826
-2807
-2760
-2716
-2692
-2719
-2749
-2767
-2792
-2781
-2744
-2697
-2676
-2686
-2687
-2720
-2767
-2752
-2739
-2721
-2688
-2669
-2673
-2662
-2656
-2651
-2634
-2626
-2636
-2653
-2634
-2625
-2604
-2562
-2514
-2483
-2491
-2501
-2518
-2539
-2497
-2454
-2413
-2371
-2346
-2365
-2405
-2432
-2457
-2458
-2424
-2377
-2367
-2375
-2398
-2440
-2467
-2486
-2497
-2494
-2462
-2472
-2492
-2502
-2494
-2526
-2555
-2583
-2626
-2685
-2722
-2750
-2781
-2779
-2777
-2796
-2822
-2876
-2921
-2959
-2974
-2948
-2907
-2856
-2868
-2904
-2947
-2972
-3000
-2986
-2931
-2916
-2889
-2889
-2911
-2936
-2966
-2974
-2959
-2946
-2929
-2921
-2917
-2937
-2926
-2928
-2915
-2911
-2934
-2959
-2968
-2955
-2940
-2920
-2887
-2872
-2909
-2941
-2972
-2999
-3000
-2959
-2909
-2874
-2859
-2899
-2954
-2969
-2996
-2994
-2948
-2902
-2880
-2886
-2893
-2939
-2969
-2977
-2977
-2950
-2924
-2912
-2927
-2936
-2928
-2924
-2916
-2917
-2934
-2957
-2962
-2944
-2939
-2910
-2886
-2887
-2897
-2934
-2976
-2997
-2975
-2955
-2907
-2877
-2857
-2887
-2946
-2984
-3007
-2984
-2949
-2907
-2881
-2882
-2912
-2951
-2977
-2966
-2962
-2951
-2928
-2907
-2926
-2944
-2929
-2924
-2936
-2924
-2931
-2956
-2949
-2939
-2942
-2931
-2893
-2894
-2903
-2942
-2992
-2999
-2985
-2947
-2917
-2859
-2853
-2899
-2915
-2911
-2893
-2854
-2762
-2669
-2617
-2569
-2553
-2554
-2560
-2541
-2502
-2456
-2414
-2385
-2384
-2370
-2369
-2379
-2377
-2362
-2378
-2393
-2409
-2432
-2447
-2441
-2437
-2462
-2515
-2571
-2640
-2709
-2739
-2740
-2748
-2756
-2787
-2853
-2912
-2964
-3000
-2989
-2946
-2902
-2884
-2889
-2902
-2936
-2972
-2971
-2954
-2934
-2927
-2928
-2926
-2932
-2934
-2927
-2924
-2925
-2932
-2955
-2974
-2976
-2948
-2905
-2889
-2894
-2894
-2934
-2974
-2989
-2982
-2947
-2893
-2849
-2854
-2887
-2942
-2981
-3017
-2985
-2939
-2913
-2888
-2874
-2827
-2747
-2651
-2520
-2364
-2202
-2033
-1873
-1746
-1603
-1455
-1359
-1521
-1880
-2367
-2876
-3378
-3874
-4359
-4844
-5324
-5831
-6386
-6867
-6921
-6579
-6073
-5522
-4933
-4366
-3823
-3335
-3080
-3014
-2999
-2991
-2959
-2917
-2887
-2892
-2911
-2937
-2956
-2961
-2957
-2939
-2925
-2925
-2926
-2927
-2936
-2934
-2906
-2887
-2906
-2920
-2917
-2914
-2874
-2846
-2816
-2804
-2820
-2868
-2901
-2932
-2913
-2871
-2826
-2774
-2775
-2791
-2827
-2838
-2854
-2856
-2804
-2767
-2742
-2747
-2761
-2789
-2818
-2822
-2801
-2782
-2753
-2738
-2735
-2722
-2723
-2724
-2728
-2716
-2711
-2742
-2754
-2755
-2738
-2702
-2676
-2663
-2667
-2686
-2716
-2730
-2706
-2661
-2606
-2568
-2561
-2579
-2609
-2640
-2644
-2618
-2567
-2494
-2467
-2452
-2441
-2457
-2479
-2479
-2448
-2430
-2399
-2392
-2396
-2391
-2388
-2397
-2392
-2397
-2424
-2453
-2452
-2458
-2478
-2452
-2424
-2438
-2457
-2500
-2553
-2567
-2575
-2584
-2566
-2561
-2602
-2666
-2739
-2804
-2856
-2882
-2852
-2828
-2822
-2832
-2872
-2922
-2956
-2979
-2961
-2936
-2923
-2919
-2917
-2929
-2936
-2922
-2922
-2923
-2936
-2946
-2976
-2979
-2961
-2915
-2886
-2889
-2919
-2939
-2971
-3001
-2987
-2954
-2910
-2876
-2874
-2913
-2953
-2984
-2997
-3004
-2946
-2900
-2885
-2887
-2905
-2952
-2981
-2986
-2971
-2945
-2931
-2917
-2923
-2940
-2929
-2936
-2921
-2922
-2926
-2939
-2962
-2954
-2936
-2907
-2890
-2894
-2916
-2950
-2981
-3001
-2983
-2952
-2907
-2870
-2863
-2907
-2955
-2991
-3001
-2999
-2957
-2902
-2886
-2884
-2913
-2952
-2960
-2976
-2971
-2947
-2913
-2917
-2936
-2934
-2932
-2937
-2930
-2913
-2945
-2971
-2977
-2961
-2954
-2919
-2899
-2891
-2910
-2940
-2994
-2994
-2982
-2956
-2906
-2872
-2874
-2912
-2951
-2992
-2998
-2986
-2941
-2905
-2892
-2888
-2902
-2945
-2982
-2976
-2961
-2939
-2915
-2893
-2887
-2846
-2795
-2761
-2712
-2650
-2627
-2618
-2583
-2561
-2517
-2473
-2409
-2386
-2382
-2387
-2427
-2441
-2427
-2396
-2336
-2311
-2319
-2371
-2427
-2484
-2534
-2544
-2533
-2529
-2531
-2561
-2636
-2707
-2772
-2824
-2852
-2876
-2902
-2919
-2930
-2923
-2927
-2927
-2929
-2924
-2944
-2964
-2977
-2962
-2952
-2913
-2892
-2894
-2919
-2943
-2991
-3007
-2986
-2947
-2897
-2860
-2862
-2902
-2940
-2969
-2996
-2987
-2933
-2892
-2890
-2899
-2922
-2947
-2975
-2977
-2962
-2945
-2932
-2913
-2931
-2947
-2931
-2934
-2932
-2911
-2922
-2882
-2779
-2645
-2503
-2324
-2151
-1990
-1871
-1766
-1662
-1526
-1397
-1510
-1860
-2303
-2806
-3327
-3878
-4415
-4921
-5420
-5890
-6357
-6797
-6827
-6491
-6038
-5542
-5012
-4465
-3890
-3344
-3062
-2981
-2952
-2916
-2935
-2934
-2924
-2939
-2966
-2967
-2948
-2947
-2914
-2894
-2892
-2911
-2934
-2975
-2991
-2979
-2936
-2893
-2846
-2841
-2870
-2898
-2927
-2936
-2926
-2874
-2822
-2812
-2817
-2832
-2875
-2905
-2899
-2866
-2835
-2815
-2796
-2799
-2789
-2796
-2794
-2781
-2775
-2792
-2820
-2824
-2824
-2816
-2777
-2726
-2715
-2739
-2764
-2769
-2774
-2783
-2741
-2697
-2658
-2667
-2702
-2741
-2759
-2787
-2769
-2717
-2663
-2634
-2634
-2630
-2659
-2669
-2669
-2667
-2622
-2580
-2577
-2581
-2576
-2560
-2545
-2535
-2524
-2509
-2516
-2509
-2476
-2451
-2417
-2389
-2383
-2392
-2406
-2433
-2448
-2441
-2407
-2386
-2371
-2364
-2405
-2464
-2494
-2531
-2524
-2491
-2461
-2456
-2453
-2488
-2549
-2587
-2636
-2668
-2684
-2699
-2717
-2766
-2790
-2814
-2843
-2846
-2862
-2896
-2927
-2954
-2967
-2952
-2925
-2899
-2912
-2930
-2943
-2987
-3001
-2982
-2954
-2921
-2860
-2856
-2906
-2951
-2987
-2999
-2985
-2952
-2905
-2887
-2902
-2915
-2953
-2991
-2986
-2977
-2944
-2922
-2925
-2932
-2942
-2934
-2936
-2943
-2935
-2947
-2961
-2971
-2962
-2948
-2927
-2911
-2908
-2924
-2940
-2989
-3006
-2982
-2945
-2906
-2869
-2873
-2909
-2962
-2989
-3009
-2987
-2957
-2922
-2890
-2901
-2916
-2959
-2985
-2984
-2973
-2928
-2918
-2921
-2934
-2933
-2942
-2948
-2938
-2931
-2947
-2959
-2972
-2961
-2946
-2932
-2900
-2897
-2921
-2952
-2987
-2989
-2976
-2947
-2904
-2877
-2885
-2919
-2940
-2975
-3017
-3002
-2957
-2908
-2887
-2881
-2912
-2944
-2963
-2974
-2966
-2944
-2924
-2929
-2924
-2922
-2918
-2943
-2950
-2927
-2950
-2968
-2962
-2967
-2966
-2927
-2891
-2892
-2902
-2906
-2894
-2861
-2808
-2736
-2644
-2553
-2531
-2547
-2549
-2548
-2557
-2517
-2432
-2366
-2343
-2343
-2354
-2388
-2421
-2422
-2411
-2373
-2363
-2390
-2445
-2460
-2488
-2525
-2553
-2564
-2617
-2672
-2704
-2751
-2787
-2800
-2827
-2861
-2909
-2957
-2987
-2986
-2974
-2956
-2919
-2870
-2864
-2906
-2961
-2999
-3013
-2990
-2941
-2896
-2899
-2901
-2910
-2949
-2987
-2986
-2977
-2955
-2933
-2933
-2941
-2932
-2927
-2937
-2931
-2928
-2952
-2957
-2962
-2966
-2964
-2928
-2896
-2889
-2907
-2945
-2972
-2978
-2971
-2934
-2904
-2864
-2804
-2732
-2659
-2543
-2415
-2251
-2054
-1874
-1726
-1585
-1453
-1366
-1551
-1926
-2381
-2844
-3333
-3840
-4346
-4853
-5353
-5877
-6382
-6831
-6874
-6564
-6081
-5549
-5004
-4430
-3855
-3331
-3059
-2999
-3003
-3003
-2995
-2961
-2924
-2873
-2869
-2915
-2957
-2976
-2994
-2980
-2932
-2904
-2890
-2901
-2916
-2940
-2958
-2945
-2926
-2897
-2876
-2859
-2860
-2864
-2871
-2876
-2879
-2851
-2879
-2901
-2898
-2889
-2876
-2830
-2802
-2771
-2788
-2822
-2851
-2855
-2829
-2802
-2774
-2739
-2741
-2773
-2815
-2833
-2846
-2821
-2774
-2714
-2686
-2693
-2712
-2748
-2771
-2776
-2767
-2741
-2722
-2711
-2711
-2715
-2712
-2721
-2711
-2682
-2686
-2689
-2677
-2682
-2672
-2618
-2586
-2574
-2572
-2597
-2631
-2613
-2583
-2548
-2492
-2436
-2427
-2444
-2473
-2476
-2502
-2481
-2431
-2377
-2349
-2333
-2351
-2414
-2450
-2453
-2451
-2431
-2424
-2417
-2445
-2462
-2476
-2493
-2511
-2501
-2508
-2541
-2569
-2588
-2614
-2620
-2629
-2664
-2720
-2787
-2849
-2888
-2890
-2872
-2833
-2814
-2851
-2896
-2949
-2999
-3015
-3008
-2956
-2916
-2906
-2912
-2932
-2967
-2992
-2979
-2966
-2946
-2924
-2928
-2929
-2938
-2944
-2937
-2927
-2929
-2946
-2976
-2966
-2952
-2957
-2916
-2912
-2906
-2927
-2956
-2989
-3017
-3007
-2972
-2918
-2867
-2884
-2932
-2960
-2994
-3016
-3004
-2949
-2909
-2893
-2877
-2904
-2954
-2994
-2996
-2973
-2942
-2924
-2921
-2921
-2934
-2927
-2946
-2953
-2934
-2949
-2972
-2967
-2956
-2950
-2919
-2897
-2895
-2920
-2949
-2987
-3006
-2997
-2963
-2909
-2880
-2887
-2907
-2959
-3013
-3017
-2984
-2952
-2906
-2897
-2903
-2929
-2962
-2984
-2976
-2978
-2942
-2909
-2913
-2933
-2946
-2950
-2963
-2951
-2943
-2959
-2944
-2962
-2956
-2952
-2922
-2906
-2912
-2936
-2966
-3004
-3011
-3002
-2952
-2905
-2885
-2887
-2916
-2964
-2995
-3007
-2984
-2961
-2897
-2837
-2804
-2781
-2774
-2753
-2711
-2673
-2617
-2554
-2518
-2494
-2488
-2473
-2444
-2404
-2387
-2396
-2405
-2407
-2415
-2407
-2366
-2352
-2362
-2389
-2440
-2501
-2550
-2577
-2577
-2566
-2556
-2595
-2660
-2739
-2824
-2899
-2930
-2925
-2899
-2892
-2891
-2921
-2957
-2974
-2972
-2968
-2953
-2924
-2918
-2931
-2930
-2939
-2948
-2958
-2941
-2952
-2964
-2972
-2971
-2961
-2931
-2896
-2891
-2911
-2952
-2990
-3003
-2987
-2953
-2919
-2876
-2886
-2923
-2976
-2994
-3015
-2996
-2952
-2914
-2888
-2904
-2931
-2957
-2972
-2974
-2972
-2903
-2747
-2597
-2474
-2355
-2214
-2085
-1935
-1777
-1648
-1499
-1382
-1522
-1897
-2343
-2815
-3306
-3831
-4363
-4911
-5426
-5912
-6387
-6791
-6796
-6471
-6041
-5564
-5054
-4519
-3944
-3389
-3034
-2931
-2901
-2923
-2971
-2981
-2962
-2969
-2953
-2932
-2927
-2929
-2924
-2942
-2946
-2943
-2943
-2947
-2961
-2961
-2948
-2933
-2888
-2855
-2847
-2859
-2877
-2917
-2929
-2921
-2881
-2849
-2810
-2817
-2856
-2893
-2912
-2917
-2884
-2839
-2786
-2759
-2759
-2772
-2810
-2839
-2842
-2846
-2821
-2800
-2771
-2772
-2782
-2779
-2772
-2749
-2744
-2761
-2773
-2768
-2767
-2756
-2727
-2709
-2704
-2712
-2725
-2767
-2772
-2745
-2706
-2668
-2614
-2608
-2637
-2672
-2701
-2715
-2696
-2636
-2582
-2557
-2549
-2558
-2565
-2578
-2563
-2536
-2492
-2463
-2436
-2432
-2424
-2431
-2435
-2416
-2382
-2386
-2416
-2410
-2415
-2425
-2406
-2392
-2389
-2415
-2466
-2527
-2535
-2517
-2502
-2463
-2446
-2456
-2514
-2579
-2651
-2694
-2714
-2698
-2707
-2726
-2749
-2811
-2859
-2895
-2924
-2921
-2900
-2906
-2923
-2934
-2937
-2939
-2944
-2934
-2934
-2945
-2940
-2937
-2946
-2942
-2917
-2896
-2901
-2914
-2928
-2995
-2997
-2972
-2952
-2912
-2874
-2877
-2932
-2964
-2984
-3006
-3001
-2949
-2894
-2876
-2889
-2925
-2962
-2990
-2991
-2966
-2951
-2923
-2924
-2939
-2937
-2948
-2957
-2946
-2942
-2954
-2969
-2972
-2951
-2944
-2913
-2892
-2896
-2934
-2943
-2989
-2997
-2970
-2937
-2897
-2876
-2891
-2923
-2971
-2996
-3011
-2999
-2954
-2909
-2902
-2901
-2921
-2955
-2978
-2967
-2971
-2939
-2905
-2922
-2935
-2932
-2949
-2958
-2944
-2933
-2959
-2966
-2959
-2969
-2968
-2936
-2894
-2900
-2933
-2957
-2988
-3000
-2988
-2952
-2919
-2885
-2902
-2932
-2964
-2994
-3012
-2991
-2942
-2899
-2886
-2894
-2937
-2957
-2964
-2985
-2980
-2943
-2924
-2924
-2941
-2944
-2949
-2966
-2932
-2887
-2850
-2811
-2767
-2727
-2692
-2628
-2563
-2521
-2507
-2516
-2537
-2516
-2487
-2442
-2374
-2311
-2313
-2366
-2397
-2432
-2474
-2457
-2412
-2385
-2396
-2422
-2480
-2536
-2597
-2614
-2640
-2654
-2674
-2712
-2761
-2817
-2864
-2903
-2932
-2937
-2954
-2967
-2966
-2964
-2943
-2918
-2904
-2894
-2923
-2956
-2981
-2981
-2986
-2961
-2920
-2882
-2891
-2936
-2968
-2990
-3011
-2999
-2939
-2899
-2893
-2889
-2907
-2953
-2979
-2994
-2977
-2939
-2936
-2938
-2937
-2924
-2932
-2945
-2932
-2945
-2968
-2967
-2965
-2964
-2962
-2924
-2827
-2722
-2612
-2501
-2397
-2259
-2110
-1947
-1751
-1561
-1417
-1346
-1522
-1923
-2404
-2877
-3319
-3796
-4315
-4811
-5344
-5901
-6418
-6866
-6909
-6544
-6047
-5524
-5001
-4445
-3906
-3391
-3097
-2987
-2956
-2967
-2971
-2971
-2957
-2930
-2908
-2895
-2919
-2966
-3001
-3005
-2989
-2963
-2912
-2885
-2892
-2921
-2944
-2961
-2972
-2961
-2907
-2854
-2830
-2823
-2831
-2880
-2916
-2912
-2910
-2896
-2852
-2829
-2842
-2829
-2834
-2841
-2826
-2805
-2811
-2832
-2823
-2824
-2811
-2774
-2762
-2759
-2781
-2802
-2834
-2836
-2797
-2761
-2714
-2673
-2662
-2704
-2749
-2771
-2796
-2799
-2760
-2698
-2695
-2701
-2711
-2732
-2747
-2742
-2729
-2676
-2645
-2644
-2643
-2627
-2627
-2626
-2617
-2596
-2584
-2597
-2577
-2557
-2537
-2489
-2457
-2434
-2430
-2448
-2491
-2489
-2465
-2420
-2384
-2327
-2341
-2376
-2414
-2461
-2502
-2505
-2455
-2420
-2429
-2435
-2471
-2502
-2527
-2544
-2542
-2519
-2517
-2541
-2579
-2619
-2664
-2714
-2747
-2777
-2824
-2853
-2849
-2864
-2893
-2879
-2871
-2884
-2931
-2944
-2976
-3013
-2986
-2947
-2907
-2886
-2887
-2916
-2965
-3003
-3000
-2990
-2957
-2921
-2887
-2880
-2912
-2964
-2985
-2991
-2986
-2947
-2927
-2936
-2936
-2924
-2943
-2951
-2960
-2935
-2941
-2957
-2959
-2964
-2952
-2927
-2905
-2912
-2934
-2949
-2977
-2989
-2984
-2961
-2920
-2884
-2876
-2913
-2974
-3006
-3006
-2992
-2949
-2908
-2887
-2897
-2932
-2961
-2986
-2985
-2967
-2942
-2936
-2922
-2927
-2942
-2946
-2950
-2946
-2949
-2959
-2978
-2979
-2970
-2944
-2914
-2896
-2884
-2926
-2959
-2994
-3008
-2997
-2970
-2912
-2877
-2880
-2908
-2952
-2996
-3027
-2987
-2944
-2904
-2891
-2897
-2936
-2973
-2991
-2991
-2973
-2944
-2924
-2914
-2925
-2942
-2948
-2961
-2952
-2941
-2944
-2954
-2954
-2964
-2964
-2926
-2902
-2912
-2929
-2963
-2983
-2985
-2975
-2930
-2857
-2779
-2736
-2732
-2732
-2729
-2699
-2647
-2562
-2496
-2460
-2434
-2447
-2472
-2474
-2451
-2434
-2401
-2371
-2359
-2375
-2372
-2389
-2412
-2429
-2449
-2489
-2507
-2530
-2566
-2591
-2600
-2613
-2646
-2706
-2787
-2865
-2922
-2950
-2937
-2911
-2877
-2884
-2924
-2951
-2989
-3017
-2994
-2939
-2912
-2887
-2884
-2907
-2944
-2980
-2969
-2960
-2931
-2924
-2916
-2934
-2946
-2949
-2949
-2937
-2932
-2952
-2971
-2966
-2957
-2952
-2929
-2920
-2918
-2919
-2957
-2999
-3005
-2981
-2959
-2912
-2874
-2885
-2924
-2960
-2987
-3000
-2924
-2770
-2599
-2439
-2303
-2181
-2080
-1974
-1844
-1677
-1487
-1348
-1479
-1854
-2325
-2832
-3329
-3826
-4332
-4856
-5387
-5904
-6399
-6836
-6861
-6517
-6031
-5539
-5040
-4531
-3983
-3439
-3108
-2967
-2904
-2889
-2921
-2964
-2988
-3012
-3000
-2957
-2906
-2886
-2877
-2906
-2963
-2981
-3001
-2992
-2962
-2933
-2921
-2918
-2896
-2887
-2894
-2892
-2886
-2887
-2900
-2901
-2896
-2882
-2850
-2836
-2838
-2858
-2892
-2900
-2888
-2872
-2838
-2787
-2744
-2739
-2791
-2827
-2857
-2863
-2836
-2819
-2762
-2743
-2749
-2772
-2801
-2817
-2809
-2781
-2734
-2728
-2714
-2727
-2720
-2724
-2741
-2752
-2735
-2745
-2742
-2731
-2728
-2704
-2676
-2628
-2637
-2655
-2661
-2691
-2699
-2665
-2617
-2556
-2524
-2518
-2531
-2560
-2565
-2560
-2536
-2466
-2406
-2381
-2382
-2408
-2431
-2461
-2449
-2434
-2399
-2370
-2384
-2398
-2407
-2437
-2455
-2461
-2451
-2466
-2491
-2507
-2511
-2507
-2489
-2492
-2496
-2560
-2604
-2672
-2737
-2747
-2739
-2742
-2739
-2766
-2832
-2882
-2923
-2967
-2967
-2940
-2907
-2902
-2916
-2921
-2961
-2987
-2977
-2970
-2939
-2911
-2915
-2923
-2931
-2959
-2957
-2951
-2956
-2962
-2971
-2964
-2946
-2948
-2934
-2917
-2906
-2920
-2940
-2977
-3006
-2987
-2966
-2927
-2892
-2889
-2915
-2954
-2985
-3022
-3009
-2952
-2904
-2897
-2897
-2908
-2957
-2977
-2991
-2982
-2955
-2931
-2936
-2934
-2928
-2947
-2959
-2956
-2941
-2944
-2951
-2951
-2951
-2951
-2946
-2914
-2906
-2943
-2966
-3012
-3011
-2990
-2951
-2911
-2873
-2888
-2925
-2969
-3001
-3016
-2992
-2959
-2912
-2909
-2900
-2928
-2970
-2987
-3002
-2972
-2934
-2919
-2924
-2924
-2933
-2946
-2968
-2947
-2926
-2946
-2971
-2964
-2954
-2958
-2935
-2910
-2902
-2932
-2953
-2994
-3007
-2979
-2961
-2932
-2891
-2876
-2907
-2954
-2985
-3012
-2986
-2950
-2903
-2871
-2867
-2919
-2961
-2973
-2947
-2886
-2818
-2754
-2689
-2659
-2624
-2607
-2579
-2543
-2489
-2486
-2488
-2454
-2426
-2401
-2370
-2352
-2349
-2360
-2397
-2429
-2442
-2427
-2430
-2429
-2394
-2422
-2499
-2566
-2607
-2672
-2712
-2701
-2688
-2721
-2778
-2859
-2939
-2974
-2982
-2984
-2951
-2938
-2936
-2929
-2922
-2941
-2962
-2963
-2961
-2967
-2962
-2963
-2955
-2948
-2926
-2911
-2902
-2916
-2954
-2991
-3001
-2985
-2929
-2912
-2873
-2871
-2916
-2972
-2995
-3011
-3001
-2948
-2896
-2891
-2894
-2910
-2946
-2980
-2997
-2982
-2949
-2927
-2912
-2918
-2907
-2879
-2780
-2652
-2503
-2372
-2237
-2093
-1945
-1788
-1621
-1459
-1336
-1482
-1881
-2364
-2867
-3361
-3823
-4282
-4751
-5283
-5846
-6397
-6891
-6956
-6601
-6079
-5511
-4966
-4435
-3913
-3412
-3138
-3042
-2997
-2954
-2937
-2934
-2941
-2939
-2950
-2954
-2946
-2934
-2957
-2959
-2966
-2973
-2960
-2924
-2904
-2894
-2904
-2927
-2973
-2984
-2937
-2900
-2847
-2816
-2822
-2859
-2896
-2925
-2934
-2911
-2886
-2837
-2809
-2804
-2828
-2857
-2863
-2863
-2839
-2814
-2794
-2781
-2787
-2792
-2802
-2803
-2816
-2815
-2810
-2801
-2791
-2785
-2771
-2724
-2701
-2703
-2710
-2737
-2772
-2786
-2774
-2751
-2707
-2652
-2661
-2701
-2727
-2743
-2753
-2727
-2676
-2621
-2582
-2584
-2609
-2632
-2648
-2643
-2636
-2589
-2541
-2512
-2508
-2493
-2500
-2486
-2457
-2448
-2452
-2455
-2446
-2426
-2404
-2384
-2372
-2367
-2389
-2429
-2482
-2510
-2487
-2456
-2425
-2392
-2416
-2461
-2506
-2563
-2582
-2578
-2542
-2531
-2554
-2586
-2659
-2717
-2772
-2816
-2846
-2830
-2819
-2846
-2872
-2876
-2921
-2951
-2953
-2952
-2953
-2969
-2970
-2956
-2957
-2918
-2889
-2909
-2929
-2959
-2994
-2997
-2981
-2952
-2922
-2883
-2881
-2929
-2969
-2996
-3018
-3004
-2953
-2917
-2904
-2906
-2942
-2963
-2976
-2989
-2972
-2956
-2936
-2924
-2928
-2935
-2954
-2966
-2954
-2940
-2959
-2974
-2976
-2959
-2955
-2947
-2897
-2909
-2940
-2967
-2996
-3006
-2989
-2968
-2918
-2884
-2880
-2928
-2962
-2986
-3016
-3001
-2959
-2911
-2900
-2895
-2917
-2957
-2996
-2997
-2971
-2953
-2936
-2937
-2939
-2944
-2953
-2969
-2967
-2944
-2961
-2950
-2970
-2970
-2952
-2926
-2907
-2898
-2937
-2959
-2993
-3005
-2993
-2947
-2916
-2892
-2891
-2930
-2966
-3002
-3018
-3004
-2964
-2900
-2885
-2887
-2919
-2970
-2982
-2981
-2979
-2954
-2942
-2931
-2937
-2959
-2959
-2959
-2957
-2937
-2972
-2973
-2952
-2940
-2917
-2849
-2774
-2729
-2702
-2696
-2692
-2658
-2613
-2537
-2471
-2427
-2400
-2414
-2430
-2449
-2465
-2456
-2406
-2352
-2324
-2321
-2372
-2416
-2478
-2514
-2509
-2489
-2496
-2526
-2559
-2598
-2650
-2704
-2734
-2771
-2842
-2892
-2931
-2964
-2963
-2932
-2912
-2896
-2922
-2970
-3001
-2997
-2991
-2952
-2907
-2874
-2876
-2914
-2974
-3004
-3022
-2999
-2946
-2894
-2889
-2898
-2926
-2962
-2984
-2986
-2979
-2941
-2936
-2925
-2921
-2924
-2961
-2966
-2952
-2940
-2961
-2971
-2981
-2969
-2955
-2939
-2916
-2916
-2935
-2949
-2990
-2943
-2828
-2670
-2495
-2304
-2151
-2024
-1933
-1820
-1700
-1539
-1381
-1455
-1812
-2286
-2809
-3339
-3858
-4358
-4846
-5338
-5838
-6359
-6843
-6908
-6587
-6102
-5569
-5032
-4497
-3961
-3441
-3132
-3009
-2951
-2920
-2914
-2929
-2953
-2998
-3016
-3000
-2963
-2924
-2892
-2892
-2927
-2973
-3001
-3008
-3006
-2942
-2893
-2858
-2859
-2877
-2919
-2928
-2921
-2904
-2894
-2872
-2867
-2876
-2857
-2876
-2899
-2871
-2861
-2859
-2871
-2857
-2840
-2824
-2804
-2777
-2766
-2778
-2824
-2856
-2852
-2848
-2812
